interpolation:linear
wavelength,value
280.0,7.248999999999999e-22
280.5,1.5400000000000003e-20
281.0,7.127e-20
281.5,1.557e-18
282.0,1.003e-17
282.5,3.335e-17
283.0,1.265e-16
283.5,2.196e-16
284.0,4.098e-15
284.5,1.217e-14
285.0,3.362e-14
285.5,2.233e-13
286.0,9.748e-13
286.5,4.939e-12
287.0,1.509e-11
287.5,6.152e-11
288.0,2.097e-10
288.5,7.735e-10
289.0,2.406e-09
289.5,8.293e-09
290.0,2.524e-08
290.5,5.521e-08
291.0,1.279e-07
291.5,4.024e-07
292.0,9.016e-07
292.5,1.297e-06
293.0,2.861e-06
293.5,7.221e-06
294.0,1.16e-05
294.5,2.259e-05
295.0,3.966e-05
295.5,8.219e-05
296.0,0.0001449
296.5,0.0001855
297.0,0.0002336
297.5,0.0005629
298.0,0.0008105
298.5,0.0007607
299.0,0.001568
299.5,0.002314
300.0,0.002386
300.5,0.003233
301.0,0.005259
301.5,0.007618
302.0,0.00621
302.5,0.01131
303.0,0.01859
303.5,0.02215
304.0,0.02007
304.5,0.02731
305.0,0.03649
305.5,0.03864
306.0,0.03628
306.5,0.043
307.0,0.05733
307.5,0.06895
308.0,0.07165
308.5,0.08061
309.0,0.07601
309.5,0.08114
310.0,0.0789
310.5,0.1257
311.0,0.1536
311.5,0.1465
312.0,0.1381
312.5,0.1616
313.0,0.1717
313.5,0.1698
314.0,0.2026
314.5,0.1688
315.0,0.2193
315.5,0.1889
316.0,0.1569
316.5,0.2158
317.0,0.268
317.5,0.2822
318.0,0.2137
318.5,0.2508
319.0,0.2893
319.5,0.2466
320.0,0.2998
320.5,0.3544
321.0,0.2999
321.5,0.286
322.0,0.3217
322.5,0.2789
323.0,0.268
323.5,0.3181
324.0,0.369
324.5,0.38
325.0,0.3347
325.5,0.4181
326.0,0.5059
326.5,0.4969
327.0,0.4985
327.5,0.4856
328.0,0.4434
328.5,0.4517
329.0,0.5278
329.5,0.5946
330.0,0.6031
330.5,0.4915
331.0,0.5037
331.5,0.5047
332.0,0.5343
332.5,0.5237
333.0,0.5247
333.5,0.4817
334.0,0.4945
334.5,0.561
335.0,0.522
335.5,0.6093
336.0,0.4214
336.5,0.4957
337.0,0.4094
337.5,0.5102
338.0,0.4914
338.5,0.5667
339.0,0.5605
339.5,0.5389
340.0,0.6335
340.5,0.5701
341.0,0.556
341.5,0.5102
342.0,0.6094
342.5,0.5699
343.0,0.6267
343.5,0.5901
344.0,0.4357
344.5,0.4401
345.0,0.582
345.5,0.5937
346.0,0.5043
346.5,0.5708
347.0,0.6127
347.5,0.4952
348.0,0.5642
348.5,0.5637
349.0,0.5226
349.5,0.5172
350.0,0.6395
350.5,0.6743
351.0,0.6023
351.5,0.5854
352.0,0.6284
352.5,0.4901
353.0,0.6169
353.5,0.6594
354.0,0.6844
354.5,0.694
355.0,0.6915
355.5,0.6244
356.0,0.653
356.5,0.5575
357.0,0.4606
357.5,0.5638
358.0,0.4467
358.5,0.3817
359.0,0.5338
359.5,0.6803
360.0,0.7209
360.5,0.5761
361.0,0.5249
361.5,0.604
362.0,0.522
362.5,0.7219
363.0,0.6481
363.5,0.5967
364.0,0.7294
364.5,0.6233
365.0,0.6347
365.5,0.7964
366.0,0.8434
366.5,0.7921
367.0,0.7712
367.5,0.8002
368.0,0.7001
368.5,0.7062
369.0,0.7624
369.5,0.8124
370.0,0.8658
370.5,0.6718
371.0,0.7176
371.5,0.8977
372.0,0.5957
372.5,0.7141
373.0,0.7262
373.5,0.4723
374.0,0.6862
374.5,0.5681
375.0,0.5521
375.5,0.8243
376.0,0.6832
376.5,0.7079
377.0,0.7493
377.5,0.8764
378.0,0.95
378.5,0.8978
379.0,0.7409
379.5,0.6768
380.0,0.7036
380.5,0.8519
381.0,0.8534
381.5,0.6763
382.0,0.6004
382.5,0.5116
383.0,0.4735
383.5,0.4559
384.0,0.5028
384.5,0.7394
385.0,0.7331
385.5,0.6826
386.0,0.5845
386.5,0.7675
387.0,0.6377
387.5,0.7162
388.0,0.6611
388.5,0.6534
389.0,0.7052
389.5,0.854
390.0,0.8569
390.5,0.7884
391.0,0.9279
391.5,0.9463
392.0,0.7969
392.5,0.7133
393.0,0.3968
393.5,0.2884
394.0,0.5867
394.5,0.7458
395.0,0.9099
395.5,0.9243
396.0,0.8012
396.5,0.4682
397.0,0.3513
397.5,0.7144
398.0,1.0
398.5,1.034
399.0,1.119
399.5,1.115
400.0,1.158
401.0,1.178
402.0,1.243
403.0,1.18
404.0,1.161
405.0,1.161
406.0,1.141
407.0,1.122
408.0,1.166
409.0,1.248
410.0,1.09
411.0,1.18
412.0,1.266
413.0,1.235
414.0,1.25
415.0,1.252
416.0,1.273
417.0,1.242
418.0,1.219
419.0,1.234
420.0,1.228
421.0,1.285
422.0,1.221
423.0,1.192
424.0,1.261
425.0,1.258
426.0,1.224
427.0,1.201
428.0,1.17
429.0,1.107
430.0,0.9687
431.0,0.9603
432.0,1.239
433.0,1.246
434.0,1.156
435.0,1.208
436.0,1.36
437.0,1.341
438.0,1.22
439.0,1.263
440.0,1.303
441.0,1.349
442.0,1.446
443.0,1.409
444.0,1.439
445.0,1.408
446.0,1.343
447.0,1.451
448.0,1.474
449.0,1.478
450.0,1.519
451.0,1.575
452.0,1.517
453.0,1.426
454.0,1.488
455.0,1.497
456.0,1.532
457.0,1.558
458.0,1.505
459.0,1.497
460.0,1.501
461.0,1.535
462.0,1.546
463.0,1.536
464.0,1.509
465.0,1.489
466.0,1.503
467.0,1.476
468.0,1.493
469.0,1.501
470.0,1.453
471.0,1.451
472.0,1.529
473.0,1.509
474.0,1.512
475.0,1.526
476.0,1.481
477.0,1.486
478.0,1.527
479.0,1.517
480.0,1.519
481.0,1.546
482.0,1.553
483.0,1.533
484.0,1.501
485.0,1.429
486.0,1.249
487.0,1.308
488.0,1.435
489.0,1.44
490.0,1.514
491.0,1.488
492.0,1.405
493.0,1.45
494.0,1.465
495.0,1.477
496.0,1.486
497.0,1.509
498.0,1.439
499.0,1.457
500.0,1.415
501.0,1.39
502.0,1.372
503.0,1.429
504.0,1.397
505.0,1.444
506.0,1.49
507.0,1.418
508.0,1.372
509.0,1.41
510.0,1.402
511.0,1.438
512.0,1.453
513.0,1.375
514.0,1.366
515.0,1.352
516.0,1.349
517.0,1.198
518.0,1.26
519.0,1.321
520.0,1.37
521.0,1.383
522.0,1.384
523.0,1.36
524.0,1.409
525.0,1.427
526.0,1.363
527.0,1.285
528.0,1.36
529.0,1.434
530.0,1.414
531.0,1.435
532.0,1.386
533.0,1.345
534.0,1.385
535.0,1.414
536.0,1.427
537.0,1.37
538.0,1.394
539.0,1.382
540.0,1.326
541.0,1.336
542.0,1.378
543.0,1.363
544.0,1.387
545.0,1.383
546.0,1.39
547.0,1.388
548.0,1.371
549.0,1.375
550.0,1.391
551.0,1.374
552.0,1.384
553.0,1.359
554.0,1.392
555.0,1.395
556.0,1.377
557.0,1.335
558.0,1.325
559.0,1.301
560.0,1.318
561.0,1.335
562.0,1.326
563.0,1.364
564.0,1.327
565.0,1.316
566.0,1.298
567.0,1.323
568.0,1.313
569.0,1.286
570.0,1.285
571.0,1.277
572.0,1.31
573.0,1.325
574.0,1.321
575.0,1.297
576.0,1.285
577.0,1.299
578.0,1.278
579.0,1.281
580.0,1.303
581.0,1.307
582.0,1.33
583.0,1.332
584.0,1.342
585.0,1.309
586.0,1.282
587.0,1.311
588.0,1.285
589.0,1.149
590.0,1.2
591.0,1.264
592.0,1.252
593.0,1.265
594.0,1.259
595.0,1.231
596.0,1.271
597.0,1.259
598.0,1.254
599.0,1.254
600.0,1.253
601.0,1.241
602.0,1.233
603.0,1.252
604.0,1.273
605.0,1.266
606.0,1.26
607.0,1.271
608.0,1.256
609.0,1.258
610.0,1.248
611.0,1.254
612.0,1.25
613.0,1.234
614.0,1.216
615.0,1.242
616.0,1.2
617.0,1.198
618.0,1.243
619.0,1.23
620.0,1.238
621.0,1.24
622.0,1.226
623.0,1.208
624.0,1.187
625.0,1.184
626.0,1.202
627.0,1.217
628.0,1.159
629.0,1.196
630.0,1.169
631.0,1.188
632.0,1.173
633.0,1.205
634.0,1.191
635.0,1.208
636.0,1.191
637.0,1.21
638.0,1.219
639.0,1.205
640.0,1.192
641.0,1.191
642.0,1.185
643.0,1.2
644.0,1.196
645.0,1.198
646.0,1.173
647.0,1.165
648.0,1.167
649.0,1.145
650.0,1.142
651.0,1.19
652.0,1.149
653.0,1.174
654.0,1.16
655.0,1.121
656.0,0.9909
657.0,1.017
658.0,1.138
659.0,1.145
660.0,1.149
661.0,1.157
662.0,1.161
663.0,1.137
664.0,1.148
665.0,1.148
666.0,1.148
667.0,1.146
668.0,1.146
669.0,1.163
670.0,1.158
671.0,1.157
672.0,1.147
673.0,1.164
674.0,1.159
675.0,1.148
676.0,1.156
677.0,1.144
678.0,1.147
679.0,1.128
680.0,1.137
681.0,1.129
682.0,1.128
683.0,1.126
684.0,1.12
685.0,1.129
686.0,1.123
687.0,0.8443
688.0,0.941
689.0,0.9428
690.0,0.9731
691.0,1.007
692.0,1.029
693.0,1.023
694.0,1.015
695.0,1.045
696.0,1.046
697.0,1.095
698.0,1.078
699.0,1.062
700.0,1.05
701.0,1.042
702.0,1.046
703.0,1.048
704.0,1.075
705.0,1.077
706.0,1.074
707.0,1.074
708.0,1.076
709.0,1.074
710.0,1.076
711.0,1.073
712.0,1.068
713.0,1.059
714.0,1.063
715.0,1.033
716.0,1.034
717.0,0.9334
718.0,0.8645
719.0,0.7963
720.0,0.8363
721.0,0.9
722.0,1.004
723.0,0.9484
724.0,0.8694
725.0,0.8606
726.0,0.8976
727.0,0.9023
728.0,0.8599
729.0,0.8788
730.0,0.9289
731.0,0.8934
732.0,0.9416
733.0,0.9833
734.0,1.003
735.0,0.9842
736.0,0.9826
737.0,0.987
738.0,0.9936
739.0,0.9743
740.0,0.997
741.0,0.9855
742.0,0.9849
743.0,1.009
744.0,1.006
745.0,1.005
746.0,1.01
747.0,1.012
748.0,1.01
749.0,0.9979
750.0,0.9973
751.0,0.9871
752.0,0.9913
753.0,0.9962
754.0,0.9984
755.0,0.9928
756.0,0.9923
757.0,0.9937
758.0,0.9816
759.0,0.9666
760.0,0.2726
761.0,0.1726
762.0,0.598
763.0,0.3678
764.0,0.4901
765.0,0.5985
766.0,0.6837
767.0,0.8141
768.0,0.9022
769.0,0.913
770.0,0.9349
771.0,0.9384
772.0,0.9392
773.0,0.9454
774.0,0.9406
775.0,0.9332
776.0,0.9445
777.0,0.932
778.0,0.9264
779.0,0.9271
780.0,0.9218
781.0,0.9227
782.0,0.9284
783.0,0.9121
784.0,0.9164
785.0,0.9099
786.0,0.9203
787.0,0.9079
788.0,0.8984
789.0,0.8987
790.0,0.8804
791.0,0.8826
792.0,0.8754
793.0,0.8619
794.0,0.8707
795.0,0.8869
796.0,0.8673
797.0,0.8685
798.0,0.8866
799.0,0.8825
800.0,0.869
801.0,0.8679
802.0,0.8652
803.0,0.8596
804.0,0.8599
805.0,0.8551
806.0,0.8755
807.0,0.8658
808.0,0.8661
809.0,0.8526
810.0,0.8476
811.0,0.8522
812.0,0.8332
813.0,0.8194
814.0,0.7396
815.0,0.7346
816.0,0.6867
817.0,0.6967
818.0,0.6749
819.0,0.7379
820.0,0.7015
821.0,0.7977
822.0,0.7786
823.0,0.566
824.0,0.7634
825.0,0.7851
826.0,0.7619
827.0,0.7969
828.0,0.6957
829.0,0.7559
830.0,0.7482
831.0,0.75
832.0,0.7308
833.0,0.7668
834.0,0.7464
835.0,0.8057
836.0,0.78
837.0,0.8074
838.0,0.786
839.0,0.7944
840.0,0.8108
841.0,0.801
842.0,0.8001
843.0,0.7971
844.0,0.7874
845.0,0.812
846.0,0.8081
847.0,0.7922
848.0,0.7885
849.0,0.7661
850.0,0.7338
851.0,0.7782
852.0,0.7721
853.0,0.7423
854.0,0.6417
855.0,0.7039
856.0,0.7697
857.0,0.7861
858.0,0.7806
859.0,0.7808
860.0,0.7819
861.0,0.7777
862.0,0.7897
863.0,0.8084
864.0,0.7679
865.0,0.7611
866.0,0.6843
867.0,0.7141
868.0,0.7771
869.0,0.7609
870.0,0.7826
871.0,0.7719
872.0,0.7691
873.0,0.7676
874.0,0.7584
875.0,0.7431
876.0,0.7509
877.0,0.7584
878.0,0.7668
879.0,0.755
880.0,0.7388
881.0,0.7283
882.0,0.7442
883.0,0.746
884.0,0.7428
885.0,0.7484
886.0,0.7153
887.0,0.7214
888.0,0.733
889.0,0.7395
890.0,0.7354
891.0,0.7331
892.0,0.7146
893.0,0.6957
894.0,0.6775
895.0,0.6484
896.0,0.6149
897.0,0.5399
898.0,0.5822
899.0,0.4574
900.0,0.5892
901.0,0.4787
902.0,0.5427
903.0,0.554
904.0,0.6724
905.0,0.653
906.0,0.6142
907.0,0.5161
908.0,0.5241
909.0,0.5593
910.0,0.5095
911.0,0.5343
912.0,0.5548
913.0,0.5177
914.0,0.5108
915.0,0.5517
916.0,0.4722
917.0,0.5821
918.0,0.4844
919.0,0.5891
920.0,0.588
921.0,0.6094
922.0,0.5554
923.0,0.5882
924.0,0.5696
925.0,0.5577
926.0,0.5636
927.0,0.6208
928.0,0.4846
929.0,0.4503
930.0,0.367
931.0,0.3453
932.0,0.2619
933.0,0.2205
934.0,0.1371
935.0,0.2193
936.0,0.1469
937.0,0.1505
938.0,0.1809
939.0,0.3346
940.0,0.3934
941.0,0.3095
942.0,0.35
943.0,0.2402
944.0,0.2443
945.0,0.317
946.0,0.175
947.0,0.3218
948.0,0.2389
949.0,0.417
950.0,0.138
951.0,0.4083
952.0,0.2377
953.0,0.2949
954.0,0.3485
955.0,0.2968
956.0,0.2828
957.0,0.2399
958.0,0.3815
959.0,0.3169
960.0,0.3546
961.0,0.3875
962.0,0.3682
963.0,0.4153
964.0,0.3837
965.0,0.4125
966.0,0.415
967.0,0.414
968.0,0.5243
969.0,0.5495
970.0,0.5092
971.0,0.5695
972.0,0.5473
973.0,0.4899
974.0,0.4672
975.0,0.4795
976.0,0.4623
977.0,0.5123
978.0,0.4925
979.0,0.5113
980.0,0.4837
981.0,0.5656
982.0,0.5455
983.0,0.5266
984.0,0.5775
985.0,0.5433
986.0,0.5845
987.0,0.5764
988.0,0.5753
989.0,0.5808
990.0,0.5716
991.0,0.5829
992.0,0.586
993.0,0.5762
994.0,0.5854
995.0,0.5842
996.0,0.5822
997.0,0.5828
998.0,0.5802
999.0,0.5779
1000.0,0.5747
1001.0,0.581
1002.0,0.5682
1003.0,0.5709
1004.0,0.5578
1005.0,0.5362
1006.0,0.5577
1007.0,0.5692
1008.0,0.5667
1009.0,0.5643
1010.0,0.5623
1011.0,0.5662
1012.0,0.562
1013.0,0.5647
1014.0,0.5607
1015.0,0.5571
1016.0,0.5547
1017.0,0.5562
1018.0,0.5537
1019.0,0.5431
1020.0,0.551
1021.0,0.55
1022.0,0.5462
1023.0,0.5521
1024.0,0.5462
1025.0,0.5513
1026.0,0.5492
1027.0,0.5479
1028.0,0.5469
1029.0,0.5405
1030.0,0.5438
1031.0,0.5418
1032.0,0.5401
1033.0,0.5319
1034.0,0.5319
1035.0,0.5336
1036.0,0.5365
1037.0,0.5277
1038.0,0.5301
1039.0,0.5299
1040.0,0.5277
1041.0,0.53
1042.0,0.5263
1043.0,0.5247
1044.0,0.5266
1045.0,0.5195
1046.0,0.5138
1047.0,0.5186
1048.0,0.5215
1049.0,0.5197
1050.0,0.5174
1051.0,0.5168
1052.0,0.5148
1053.0,0.5109
1054.0,0.5121
1055.0,0.5126
1056.0,0.511
1057.0,0.5096
1058.0,0.4972
1059.0,0.498
1060.0,0.4973
1061.0,0.4968
1062.0,0.4996
1063.0,0.4948
1064.0,0.5006
1065.0,0.4975
1066.0,0.4873
1067.0,0.4937
1068.0,0.4832
1069.0,0.4681
1070.0,0.4843
1071.0,0.4907
1072.0,0.4859
1073.0,0.4787
1074.0,0.4899
1075.0,0.4688
1076.0,0.4897
1077.0,0.4829
1078.0,0.4744
1079.0,0.4813
1080.0,0.4755
1081.0,0.4618
1082.0,0.4663
1083.0,0.4671
1084.0,0.4617
1085.0,0.4762
1086.0,0.4402
1087.0,0.4501
1088.0,0.4672
1089.0,0.4561
1090.0,0.4484
1091.0,0.4666
1092.0,0.4646
1093.0,0.4042
1094.0,0.4264
1095.0,0.4194
1096.0,0.4047
1097.0,0.4537
1098.0,0.3994
1099.0,0.415
1100.0,0.3906
1101.0,0.394
1102.0,0.3791
1103.0,0.3774
1104.0,0.3777
1105.0,0.4065
1106.0,0.3287
1107.0,0.3895
1108.0,0.341
1109.0,0.3395
1110.0,0.3874
1111.0,0.2775
1112.0,0.3361
1113.0,0.2296
1114.0,0.2545
1115.0,0.2115
1116.0,0.1788
1117.0,0.07735
1118.0,0.1905
1119.0,0.1036
1120.0,0.1304
1121.0,0.1672
1122.0,0.07831
1123.0,0.1176
1124.0,0.09935
1125.0,0.1274
1126.0,0.05241
1127.0,0.143
1128.0,0.09414
1129.0,0.09844
1130.0,0.06895
1131.0,0.2515
1132.0,0.2011
1133.0,0.1378
1134.0,0.04228
1135.0,0.01556
1136.0,0.1187
1137.0,0.2498
1138.0,0.1786
1139.0,0.2473
1140.0,0.2139
1141.0,0.1697
1142.0,0.1911
1143.0,0.2634
1144.0,0.1021
1145.0,0.1326
1146.0,0.1431
1147.0,0.05892
1148.0,0.2281
1149.0,0.1882
1150.0,0.1095
1151.0,0.1774
1152.0,0.2113
1153.0,0.2007
1154.0,0.1306
1155.0,0.2582
1156.0,0.2362
1157.0,0.2599
1158.0,0.2568
1159.0,0.272
1160.0,0.2386
1161.0,0.2829
1162.0,0.2851
1163.0,0.3669
1164.0,0.3215
1165.0,0.3094
1166.0,0.3031
1167.0,0.3267
1168.0,0.3315
1169.0,0.337
1170.0,0.3611
1171.0,0.353
1172.0,0.3564
1173.0,0.3603
1174.0,0.2721
1175.0,0.3499
1176.0,0.3777
1177.0,0.367
1178.0,0.2869
1179.0,0.3805
1180.0,0.3473
1181.0,0.3576
1182.0,0.2589
1183.0,0.3503
1184.0,0.3324
1185.0,0.3241
1186.0,0.3727
1187.0,0.3585
1188.0,0.2642
1189.0,0.3349
1190.0,0.3642
1191.0,0.3518
1192.0,0.3686
1193.0,0.3554
1194.0,0.3648
1195.0,0.3492
1196.0,0.3391
1197.0,0.3626
1198.0,0.3352
1199.0,0.2949
1200.0,0.3513
1201.0,0.3421
1202.0,0.3383
1203.0,0.3355
1204.0,0.299
1205.0,0.3432
1206.0,0.3736
1207.0,0.3383
1208.0,0.3301
1209.0,0.3361
1210.0,0.348
1211.0,0.3352
1212.0,0.3351
1213.0,0.3634
1214.0,0.3411
1215.0,0.3357
1216.0,0.362
1217.0,0.3543
1218.0,0.3593
1219.0,0.3557
1220.0,0.3594
1221.0,0.3619
1222.0,0.3537
1223.0,0.3511
1224.0,0.3503
1225.0,0.3597
1226.0,0.3609
1227.0,0.3378
1228.0,0.3618
1229.0,0.3609
1230.0,0.3557
1231.0,0.3628
1232.0,0.3608
1233.0,0.3521
1234.0,0.3617
1235.0,0.36
1236.0,0.3621
1237.0,0.3586
1238.0,0.3609
1239.0,0.3563
1240.0,0.3575
1241.0,0.3567
1242.0,0.3551
1243.0,0.3522
1244.0,0.355
1245.0,0.3563
1246.0,0.3542
1247.0,0.3531
1248.0,0.3533
1249.0,0.354
1250.0,0.3521
1251.0,0.3482
1252.0,0.3475
1253.0,0.346
1254.0,0.3435
1255.0,0.3475
1256.0,0.3401
1257.0,0.3388
1258.0,0.3432
1259.0,0.3345
1260.0,0.3358
1261.0,0.3217
1262.0,0.3145
1263.0,0.3153
1264.0,0.2969
1265.0,0.3131
1266.0,0.3048
1267.0,0.3077
1268.0,0.2957
1269.0,0.2107
1270.0,0.3076
1271.0,0.32
1272.0,0.3205
1273.0,0.3176
1274.0,0.3179
1275.0,0.3216
1276.0,0.3238
1277.0,0.3249
1278.0,0.3292
1279.0,0.3264
1280.0,0.3221
1281.0,0.3065
1282.0,0.2939
1283.0,0.3168
1284.0,0.3247
1285.0,0.3266
1286.0,0.3302
1287.0,0.3266
1288.0,0.3262
1289.0,0.3187
1290.0,0.3231
1291.0,0.327
1292.0,0.3128
1293.0,0.3221
1294.0,0.3201
1295.0,0.3199
1296.0,0.309
1297.0,0.2953
1298.0,0.312
1299.0,0.3219
1300.0,0.2826
1301.0,0.2892
1302.0,0.3108
1303.0,0.2778
1304.0,0.2465
1305.0,0.3052
1306.0,0.3058
1307.0,0.2485
1308.0,0.2767
1309.0,0.3041
1310.0,0.2442
1311.0,0.2674
1312.0,0.2618
1313.0,0.2582
1314.0,0.2346
1315.0,0.2337
1316.0,0.2648
1317.0,0.2519
1318.0,0.2698
1319.0,0.2225
1320.0,0.213
1321.0,0.2442
1322.0,0.2482
1323.0,0.1965
1324.0,0.2182
1325.0,0.2615
1326.0,0.2306
1327.0,0.2215
1328.0,0.1941
1329.0,0.154
1330.0,0.1962
1331.0,0.1289
1332.0,0.1294
1333.0,0.1772
1334.0,0.1461
1335.0,0.1955
1336.0,0.1597
1337.0,0.1446
1338.0,0.1558
1339.0,0.1539
1340.0,0.1471
1341.0,0.1494
1342.0,0.1566
1343.0,0.1191
1344.0,0.07121
1345.0,0.1008
1346.0,0.05949
1347.0,0.06203
1348.0,0.006291
1349.0,0.0197
1350.0,0.01859
1351.0,0.006695
1352.0,0.002663
1353.0,0.000222
1354.0,0.000571
1355.0,1.188e-05
1356.0,0.0001134
1357.0,0.0001695
1358.0,1.355e-05
1359.0,3.365e-06
1360.0,7.904e-06
1361.0,3.939e-08
1362.0,2.177e-10
1363.0,1.23e-05
1364.0,5.625e-06
1365.0,1.635e-10
1366.0,4.454e-05
1367.0,1.719e-05
1368.0,5.93e-12
1369.0,2.227e-06
1370.0,1.456e-06
1371.0,1.226e-07
1372.0,9.571e-06
1373.0,0.0001176
1374.0,0.0003942
1375.0,0.0006993
1376.0,0.0005064
1377.0,0.000252
1378.0,0.002038
1379.0,0.0001088
1380.0,0.0001867
1381.0,6.248e-06
1382.0,9.327e-06
1383.0,1.943e-07
1384.0,2.793e-06
1385.0,6.523e-06
1386.0,1.002e-05
1387.0,0.0004763
1388.0,1.054e-05
1389.0,0.001162
1390.0,0.0009899
1391.0,0.0007237
1392.0,5.523e-05
1393.0,0.0002414
1394.0,0.0002022
1395.0,2.335e-06
1396.0,4.69e-08
1397.0,0.0001103
1398.0,0.002337
1399.0,0.001493
1400.0,2.935e-08
1401.0,7.32e-08
1402.0,0.002763
1403.0,0.003721
1404.0,0.001176
1405.0,1.456e-06
1406.0,0.003421
1407.0,0.0002944
1408.0,0.002755
1409.0,0.001171
1410.0,0.0008388
1411.0,0.003234
1412.0,0.003901
1413.0,0.02767
1414.0,0.0006466
1415.0,0.0003505
1416.0,0.03795
1417.0,0.01439
1418.0,0.01639
1419.0,0.002711
1420.0,0.01017
1421.0,0.01132
1422.0,0.04855
1423.0,0.01027
1424.0,0.01854
1425.0,0.02808
1426.0,0.02949
1427.0,0.04852
1428.0,0.00609
1429.0,0.03868
1430.0,0.06009
1431.0,0.06454
1432.0,0.004891
1433.0,0.04321
1434.0,0.02309
1435.0,0.02679
1436.0,0.04563
1437.0,0.0351
1438.0,0.01654
1439.0,0.05935
1440.0,0.0449
1441.0,0.03699
1442.0,0.04025
1443.0,0.04636
1444.0,0.06263
1445.0,0.05224
1446.0,0.02453
1447.0,0.03869
1448.0,0.1066
1449.0,0.09591
1450.0,0.02863
1451.0,0.01243
1452.0,0.06082
1453.0,0.07784
1454.0,0.1224
1455.0,0.06195
1456.0,0.085
1457.0,0.1072
1458.0,0.1201
1459.0,0.143
1460.0,0.07798
1461.0,0.08408
1462.0,0.1179
