interpolation:linear
wavelength,value
280.0,2.5770000000000002e-21
280.5,8.107e-20
281.0,4.283e-19
281.5,3.566e-19
282.0,1.021e-18
282.5,2.683e-18
283.0,8.685e-18
283.5,1.422e-17
284.0,2.323e-16
284.5,6.711e-16
285.0,1.508e-15
285.5,7.286e-15
286.0,2.91e-14
286.5,1.282e-13
287.0,3.627e-13
287.5,1.372e-12
288.0,3.701e-12
288.5,1.221e-11
289.0,3.45e-11
289.5,1.088e-10
290.0,3.099e-10
290.5,6.432e-10
291.0,1.404e-09
291.5,4.093e-09
292.0,8.697e-09
292.5,1.303e-08
293.0,3.036e-08
293.5,8.258e-08
294.0,1.397e-07
294.5,1.809e-07
295.0,3.308e-07
295.5,8.515e-07
296.0,1.706e-06
296.5,2.488e-06
297.0,3.498e-06
297.5,9.995e-06
298.0,1.672e-05
298.5,1.768e-05
299.0,4.104e-05
299.5,7.508e-05
300.0,8.767e-05
300.5,0.0001357
301.0,0.0002767
301.5,0.0005026
302.0,0.0004659
302.5,0.0009223
303.0,0.001685
303.5,0.002145
304.0,0.002032
304.5,0.003092
305.0,0.004812
305.5,0.005599
306.0,0.005452
306.5,0.006856
307.0,0.01038
307.5,0.01407
308.0,0.01491
308.5,0.01776
309.0,0.01754
309.5,0.02028
310.0,0.02046
310.5,0.03323
311.0,0.04187
311.5,0.04049
312.0,0.0408
312.5,0.04991
313.0,0.05428
313.5,0.0526
314.0,0.06616
314.5,0.05912
315.0,0.0778
315.5,0.06487
316.0,0.057
316.5,0.08227
317.0,0.1022
317.5,0.1062
318.0,0.08313
318.5,0.1039
319.0,0.1236
319.5,0.1003
320.0,0.1212
320.5,0.1526
321.0,0.1366
321.5,0.131
322.0,0.1389
322.5,0.1209
323.0,0.1209
323.5,0.149
324.0,0.1741
324.5,0.1765
325.0,0.1523
325.5,0.1964
326.0,0.2404
326.5,0.2411
327.0,0.2402
327.5,0.2319
328.0,0.2062
328.5,0.2172
329.0,0.2606
329.5,0.296
330.0,0.2985
330.5,0.2387
331.0,0.2431
331.5,0.2474
332.0,0.2677
332.5,0.265
333.0,0.2642
333.5,0.2389
334.0,0.2448
334.5,0.2829
335.0,0.266
335.5,0.3108
336.0,0.2151
336.5,0.2519
337.0,0.2066
337.5,0.257
338.0,0.2512
338.5,0.2901
339.0,0.2872
339.5,0.2763
340.0,0.3248
340.5,0.2929
341.0,0.2857
341.5,0.2624
342.0,0.3137
342.5,0.2936
343.0,0.3229
343.5,0.3041
344.0,0.2248
344.5,0.2271
345.0,0.3007
345.5,0.3071
346.0,0.2611
346.5,0.2958
347.0,0.3176
347.5,0.2569
348.0,0.2929
348.5,0.2929
349.0,0.2718
349.5,0.2692
350.0,0.3331
350.5,0.3515
351.0,0.314
351.5,0.3052
352.0,0.328
352.5,0.256
353.0,0.3226
353.5,0.3451
354.0,0.3584
354.5,0.3635
355.0,0.3624
355.5,0.3275
356.0,0.3428
356.5,0.2927
357.0,0.2419
357.5,0.2962
358.0,0.2348
358.5,0.2007
359.0,0.2808
359.5,0.3579
360.0,0.3795
360.5,0.3034
361.0,0.2767
361.5,0.3188
362.0,0.2758
362.5,0.3819
363.0,0.3431
363.5,0.3162
364.0,0.3869
364.5,0.3308
365.0,0.337
365.5,0.4231
366.0,0.4484
366.5,0.4215
367.0,0.4106
367.5,0.4262
368.0,0.3731
368.5,0.3766
369.0,0.4069
369.5,0.4338
370.0,0.4626
370.5,0.3592
371.0,0.3839
371.5,0.4804
372.0,0.3189
372.5,0.3825
373.0,0.3893
373.5,0.2534
374.0,0.3683
374.5,0.3051
375.0,0.2967
375.5,0.443
376.0,0.3673
376.5,0.3808
377.0,0.4033
377.5,0.472
378.0,0.5117
378.5,0.4838
379.0,0.3993
379.5,0.3648
380.0,0.3794
380.5,0.4597
381.0,0.4608
381.5,0.3655
382.0,0.3247
382.5,0.2769
383.0,0.2565
383.5,0.2471
384.0,0.2727
384.5,0.4012
385.0,0.398
385.5,0.3708
386.0,0.3177
386.5,0.4174
387.0,0.3469
387.5,0.3898
388.0,0.36
388.5,0.356
389.0,0.3844
389.5,0.4657
390.0,0.4675
390.5,0.4304
391.0,0.5067
391.5,0.517
392.0,0.4356
392.5,0.3901
393.0,0.2171
393.5,0.1579
394.0,0.3214
394.5,0.4087
395.0,0.4988
395.5,0.5068
396.0,0.4396
396.5,0.2571
397.0,0.193
397.5,0.3926
398.0,0.5498
398.5,0.5684
399.0,0.6158
399.5,0.614
400.0,0.6376
401.0,0.6462
402.0,0.6822
403.0,0.6484
404.0,0.6387
405.0,0.6389
406.0,0.6289
407.0,0.6191
408.0,0.6434
409.0,0.689
410.0,0.6023
411.0,0.6527
412.0,0.7015
413.0,0.6843
414.0,0.693
415.0,0.6952
416.0,0.7077
417.0,0.6906
418.0,0.678
419.0,0.6872
420.0,0.6844
421.0,0.7163
422.0,0.6811
423.0,0.6656
424.0,0.7041
425.0,0.7031
426.0,0.6853
427.0,0.6727
428.0,0.6554
429.0,0.6212
430.0,0.5438
431.0,0.5391
432.0,0.6963
433.0,0.7004
434.0,0.6505
435.0,0.6795
436.0,0.766
437.0,0.756
438.0,0.6887
439.0,0.7122
440.0,0.7351
441.0,0.762
442.0,0.8174
443.0,0.7962
444.0,0.8138
445.0,0.7962
446.0,0.7602
447.0,0.8222
448.0,0.835
449.0,0.8387
450.0,0.8624
451.0,0.8946
452.0,0.8621
453.0,0.811
454.0,0.8469
455.0,0.8523
456.0,0.8727
457.0,0.8873
458.0,0.857
459.0,0.8527
460.0,0.855
461.0,0.8748
462.0,0.8818
463.0,0.8757
464.0,0.8616
465.0,0.851
466.0,0.8595
467.0,0.8438
468.0,0.8538
469.0,0.8583
470.0,0.831
471.0,0.83
472.0,0.8746
473.0,0.8633
474.0,0.8644
475.0,0.8716
476.0,0.8453
477.0,0.8475
478.0,0.8711
479.0,0.866
480.0,0.8679
481.0,0.8843
482.0,0.8892
483.0,0.8788
484.0,0.8609
485.0,0.8204
486.0,0.7174
487.0,0.752
488.0,0.825
489.0,0.8275
490.0,0.8708
491.0,0.8559
492.0,0.8083
493.0,0.8348
494.0,0.8433
495.0,0.8505
496.0,0.8557
497.0,0.869
498.0,0.8284
499.0,0.8389
500.0,0.8143
501.0,0.7992
502.0,0.7877
503.0,0.8195
504.0,0.7977
505.0,0.8271
506.0,0.8538
507.0,0.8125
508.0,0.7875
509.0,0.8098
510.0,0.8057
511.0,0.8275
512.0,0.8366
513.0,0.7919
514.0,0.7866
515.0,0.7787
516.0,0.7768
517.0,0.6903
518.0,0.7257
519.0,0.7612
520.0,0.7888
521.0,0.7963
522.0,0.7969
523.0,0.7825
524.0,0.8104
525.0,0.8197
526.0,0.783
527.0,0.7376
528.0,0.7799
529.0,0.822
530.0,0.8101
531.0,0.822
532.0,0.7938
533.0,0.7705
534.0,0.7934
535.0,0.8108
536.0,0.8184
537.0,0.7862
538.0,0.8001
539.0,0.7934
540.0,0.7606
541.0,0.7654
542.0,0.7892
543.0,0.7811
544.0,0.7944
545.0,0.792
546.0,0.7953
547.0,0.7951
548.0,0.7857
549.0,0.7882
550.0,0.7976
551.0,0.7879
552.0,0.7934
553.0,0.7792
554.0,0.7978
555.0,0.7993
556.0,0.7889
557.0,0.7643
558.0,0.7584
559.0,0.7441
560.0,0.7533
561.0,0.7629
562.0,0.7572
563.0,0.7777
564.0,0.7563
565.0,0.7496
566.0,0.7385
567.0,0.7523
568.0,0.745
569.0,0.7263
570.0,0.7263
571.0,0.7222
572.0,0.7388
573.0,0.7466
574.0,0.7441
575.0,0.7299
576.0,0.7233
577.0,0.7313
578.0,0.7206
579.0,0.7239
580.0,0.7384
581.0,0.7428
582.0,0.7573
583.0,0.7596
584.0,0.7665
585.0,0.7479
586.0,0.7325
587.0,0.7483
588.0,0.7288
589.0,0.6432
590.0,0.6728
591.0,0.7135
592.0,0.7036
593.0,0.7151
594.0,0.7097
595.0,0.6913
596.0,0.7206
597.0,0.7123
598.0,0.7111
599.0,0.712
600.0,0.7136
601.0,0.7081
602.0,0.7034
603.0,0.7152
604.0,0.7271
605.0,0.7235
606.0,0.7207
607.0,0.7281
608.0,0.7203
609.0,0.7217
610.0,0.7168
611.0,0.7207
612.0,0.7187
613.0,0.7097
614.0,0.7002
615.0,0.7157
616.0,0.6922
617.0,0.691
618.0,0.7177
619.0,0.7104
620.0,0.7149
621.0,0.7155
622.0,0.7069
623.0,0.696
624.0,0.6842
625.0,0.6827
626.0,0.6927
627.0,0.7
628.0,0.6481
629.0,0.6815
630.0,0.6656
631.0,0.6826
632.0,0.6747
633.0,0.6961
634.0,0.6899
635.0,0.701
636.0,0.6921
637.0,0.7037
638.0,0.7109
639.0,0.7031
640.0,0.6966
641.0,0.6963
642.0,0.6934
643.0,0.7028
644.0,0.7007
645.0,0.7017
646.0,0.6847
647.0,0.675
648.0,0.6755
649.0,0.6623
650.0,0.6675
651.0,0.6969
652.0,0.6657
653.0,0.6877
654.0,0.6802
655.0,0.6538
656.0,0.5802
657.0,0.596
658.0,0.6685
659.0,0.6736
660.0,0.6765
661.0,0.6813
662.0,0.6823
663.0,0.669
664.0,0.6775
665.0,0.6785
666.0,0.6792
667.0,0.6788
668.0,0.6793
669.0,0.6899
670.0,0.687
671.0,0.687
672.0,0.6812
673.0,0.6916
674.0,0.6891
675.0,0.6829
676.0,0.6876
677.0,0.6809
678.0,0.6829
679.0,0.672
680.0,0.6774
681.0,0.6729
682.0,0.6721
683.0,0.6708
684.0,0.6675
685.0,0.6733
686.0,0.6692
687.0,0.4197
688.0,0.5033
689.0,0.5055
690.0,0.5341
691.0,0.5667
692.0,0.591
693.0,0.5858
694.0,0.5811
695.0,0.6082
696.0,0.6091
697.0,0.6501
698.0,0.6399
699.0,0.6222
700.0,0.6145
701.0,0.6075
702.0,0.6126
703.0,0.6138
704.0,0.635
705.0,0.6359
706.0,0.6359
707.0,0.6366
708.0,0.6379
709.0,0.6398
710.0,0.6393
711.0,0.6387
712.0,0.6373
713.0,0.6304
714.0,0.6329
715.0,0.612
716.0,0.6121
717.0,0.5219
718.0,0.4781
719.0,0.4372
720.0,0.4571
721.0,0.51
722.0,0.5893
723.0,0.5457
724.0,0.4881
725.0,0.4791
726.0,0.502
727.0,0.5114
728.0,0.4775
729.0,0.4985
730.0,0.5273
731.0,0.5036
732.0,0.5421
733.0,0.577
734.0,0.5916
735.0,0.5789
736.0,0.5781
737.0,0.5804
738.0,0.5916
739.0,0.5799
740.0,0.5957
741.0,0.5902
742.0,0.5912
743.0,0.6064
744.0,0.6049
745.0,0.6052
746.0,0.608
747.0,0.6094
748.0,0.6081
749.0,0.6012
750.0,0.6009
751.0,0.5948
752.0,0.5974
753.0,0.6004
754.0,0.6018
755.0,0.5984
756.0,0.5981
757.0,0.599
758.0,0.5915
759.0,0.5781
760.0,0.07447
761.0,0.0356
762.0,0.2693
763.0,0.1211
764.0,0.1935
765.0,0.2692
766.0,0.3426
767.0,0.4452
768.0,0.5245
769.0,0.5379
770.0,0.559
771.0,0.5647
772.0,0.5663
773.0,0.5704
774.0,0.5677
775.0,0.5634
776.0,0.5703
777.0,0.5628
778.0,0.5594
779.0,0.5599
780.0,0.5567
781.0,0.5573
782.0,0.5608
783.0,0.5511
784.0,0.5538
785.0,0.5496
786.0,0.5556
787.0,0.5448
788.0,0.5375
789.0,0.5372
790.0,0.5213
791.0,0.5273
792.0,0.5237
793.0,0.515
794.0,0.5255
795.0,0.5339
796.0,0.5154
797.0,0.5159
798.0,0.533
799.0,0.5292
800.0,0.5195
801.0,0.5174
802.0,0.5159
803.0,0.5117
804.0,0.5127
805.0,0.5117
806.0,0.5271
807.0,0.5205
808.0,0.5211
809.0,0.5105
810.0,0.5058
811.0,0.5053
812.0,0.4894
813.0,0.4784
814.0,0.4162
815.0,0.4139
816.0,0.3847
817.0,0.3922
818.0,0.3764
819.0,0.4249
820.0,0.3986
821.0,0.4716
822.0,0.4572
823.0,0.302
824.0,0.4418
825.0,0.4633
826.0,0.4439
827.0,0.4704
828.0,0.3934
829.0,0.4416
830.0,0.4353
831.0,0.4369
832.0,0.4226
833.0,0.4522
834.0,0.4344
835.0,0.4812
836.0,0.4581
837.0,0.4827
838.0,0.4664
839.0,0.4757
840.0,0.4864
841.0,0.4789
842.0,0.4808
843.0,0.4814
844.0,0.4743
845.0,0.4909
846.0,0.4889
847.0,0.4801
848.0,0.4767
849.0,0.4631
850.0,0.4438
851.0,0.4694
852.0,0.4663
853.0,0.4492
854.0,0.3876
855.0,0.4262
856.0,0.4656
857.0,0.4763
858.0,0.4726
859.0,0.4732
860.0,0.4742
861.0,0.4716
862.0,0.479
863.0,0.4903
864.0,0.4659
865.0,0.4618
866.0,0.4153
867.0,0.4334
868.0,0.4716
869.0,0.4618
870.0,0.475
871.0,0.4685
872.0,0.4669
873.0,0.466
874.0,0.4604
875.0,0.4511
876.0,0.4557
877.0,0.4604
878.0,0.4653
879.0,0.4582
880.0,0.4484
881.0,0.4414
882.0,0.4509
883.0,0.4525
884.0,0.4504
885.0,0.4538
886.0,0.4317
887.0,0.4369
888.0,0.4429
889.0,0.4487
890.0,0.4441
891.0,0.4437
892.0,0.4299
893.0,0.4152
894.0,0.3983
895.0,0.3734
896.0,0.3507
897.0,0.2976
898.0,0.3267
899.0,0.2441
900.0,0.3369
901.0,0.2559
902.0,0.3063
903.0,0.3073
904.0,0.3953
905.0,0.3805
906.0,0.3551
907.0,0.2827
908.0,0.2893
909.0,0.3159
910.0,0.2746
911.0,0.2959
912.0,0.3101
913.0,0.2784
914.0,0.277
915.0,0.3003
916.0,0.2531
917.0,0.3263
918.0,0.2593
919.0,0.3336
920.0,0.34
921.0,0.3538
922.0,0.3128
923.0,0.3421
924.0,0.32
925.0,0.3132
926.0,0.3163
927.0,0.3576
928.0,0.2522
929.0,0.2275
930.0,0.1745
931.0,0.1658
932.0,0.1149
933.0,0.09115
934.0,0.04537
935.0,0.0951
936.0,0.05641
937.0,0.05689
938.0,0.0711
939.0,0.1606
940.0,0.1964
941.0,0.1439
942.0,0.1692
943.0,0.1079
944.0,0.1169
945.0,0.1493
946.0,0.07145
947.0,0.1487
948.0,0.1087
949.0,0.2036
950.0,0.04993
951.0,0.2012
952.0,0.1022
953.0,0.1359
954.0,0.1711
955.0,0.138
956.0,0.137
957.0,0.1019
958.0,0.1998
959.0,0.1537
960.0,0.1723
961.0,0.1974
962.0,0.1863
963.0,0.2183
964.0,0.1989
965.0,0.2177
966.0,0.217
967.0,0.2157
968.0,0.3019
969.0,0.3139
970.0,0.2868
971.0,0.3338
972.0,0.3182
973.0,0.2714
974.0,0.2569
975.0,0.2688
976.0,0.2522
977.0,0.2931
978.0,0.2759
979.0,0.2907
980.0,0.2723
981.0,0.3321
982.0,0.3155
983.0,0.3017
984.0,0.3446
985.0,0.3143
986.0,0.3521
987.0,0.3435
988.0,0.343
989.0,0.352
990.0,0.3409
991.0,0.3529
992.0,0.3551
993.0,0.3455
994.0,0.3552
995.0,0.355
996.0,0.3531
997.0,0.3538
998.0,0.352
999.0,0.3508
1000.0,0.3479
1001.0,0.3527
1002.0,0.3414
1003.0,0.3464
1004.0,0.3375
1005.0,0.3257
1006.0,0.3381
1007.0,0.3455
1008.0,0.3433
1009.0,0.3411
1010.0,0.3395
1011.0,0.3437
1012.0,0.3405
1013.0,0.343
1014.0,0.3406
1015.0,0.3383
1016.0,0.3367
1017.0,0.3375
1018.0,0.3365
1019.0,0.3287
1020.0,0.3346
1021.0,0.3342
1022.0,0.3314
1023.0,0.3349
1024.0,0.3299
1025.0,0.3349
1026.0,0.3333
1027.0,0.3325
1028.0,0.3318
1029.0,0.3278
1030.0,0.3303
1031.0,0.3289
1032.0,0.328
1033.0,0.323
1034.0,0.3231
1035.0,0.3241
1036.0,0.3257
1037.0,0.3204
1038.0,0.3218
1039.0,0.3216
1040.0,0.3203
1041.0,0.3215
1042.0,0.3192
1043.0,0.3182
1044.0,0.3193
1045.0,0.3149
1046.0,0.3114
1047.0,0.3141
1048.0,0.3158
1049.0,0.3146
1050.0,0.3131
1051.0,0.3126
1052.0,0.3113
1053.0,0.3087
1054.0,0.3093
1055.0,0.3094
1056.0,0.3082
1057.0,0.3072
1058.0,0.2995
1059.0,0.2998
1060.0,0.2992
1061.0,0.2988
1062.0,0.3003
1063.0,0.2973
1064.0,0.3008
1065.0,0.2984
1066.0,0.2927
1067.0,0.2964
1068.0,0.2898
1069.0,0.2809
1070.0,0.2903
1071.0,0.2954
1072.0,0.2916
1073.0,0.2874
1074.0,0.2955
1075.0,0.279
1076.0,0.2952
1077.0,0.2889
1078.0,0.283
1079.0,0.2907
1080.0,0.2845
1081.0,0.2745
1082.0,0.2804
1083.0,0.2816
1084.0,0.2735
1085.0,0.2853
1086.0,0.2579
1087.0,0.2679
1088.0,0.281
1089.0,0.2708
1090.0,0.2639
1091.0,0.2797
1092.0,0.2793
1093.0,0.2322
1094.0,0.255
1095.0,0.2424
1096.0,0.2308
1097.0,0.2729
1098.0,0.2266
1099.0,0.2371
1100.0,0.2185
1101.0,0.2218
1102.0,0.2106
1103.0,0.2077
1104.0,0.2081
1105.0,0.2313
1106.0,0.1693
1107.0,0.2182
1108.0,0.1804
1109.0,0.1817
1110.0,0.2156
1111.0,0.1402
1112.0,0.1806
1113.0,0.1089
1114.0,0.1222
1115.0,0.101
1116.0,0.07713
1117.0,0.02478
1118.0,0.08503
1119.0,0.03918
1120.0,0.04903
1121.0,0.06684
1122.0,0.0256
1123.0,0.04444
1124.0,0.03747
1125.0,0.04963
1126.0,0.01483
1127.0,0.05621
1128.0,0.0309
1129.0,0.03313
1130.0,0.02093
1131.0,0.1135
1132.0,0.08771
1133.0,0.05186
1134.0,0.01136
1135.0,0.004375
1136.0,0.04197
1137.0,0.1101
1138.0,0.0769
1139.0,0.1222
1140.0,0.09923
1141.0,0.07315
1142.0,0.08562
1143.0,0.1247
1144.0,0.04007
1145.0,0.05008
1146.0,0.05396
1147.0,0.01649
1148.0,0.1077
1149.0,0.08383
1150.0,0.04357
1151.0,0.07628
1152.0,0.09651
1153.0,0.09608
1154.0,0.04832
1155.0,0.1274
1156.0,0.1132
1157.0,0.1296
1158.0,0.1281
1159.0,0.14
1160.0,0.1178
1161.0,0.1492
1162.0,0.1496
1163.0,0.209
1164.0,0.1768
1165.0,0.1643
1166.0,0.165
1167.0,0.181
1168.0,0.1824
1169.0,0.1875
1170.0,0.2058
1171.0,0.2005
1172.0,0.2053
1173.0,0.2054
1174.0,0.1419
1175.0,0.2016
1176.0,0.2242
1177.0,0.2135
1178.0,0.1568
1179.0,0.2261
1180.0,0.199
1181.0,0.2056
1182.0,0.138
1183.0,0.203
1184.0,0.189
1185.0,0.1812
1186.0,0.2186
1187.0,0.2071
1188.0,0.1398
1189.0,0.1927
1190.0,0.2138
1191.0,0.2008
1192.0,0.217
1193.0,0.2072
1194.0,0.2141
1195.0,0.201
1196.0,0.1927
1197.0,0.2149
1198.0,0.1957
1199.0,0.1633
1200.0,0.2045
1201.0,0.1961
1202.0,0.1958
1203.0,0.1938
1204.0,0.168
1205.0,0.2013
1206.0,0.224
1207.0,0.1949
1208.0,0.1928
1209.0,0.197
1210.0,0.2059
1211.0,0.1949
1212.0,0.191
1213.0,0.2159
1214.0,0.1963
1215.0,0.1923
1216.0,0.2153
1217.0,0.209
1218.0,0.2135
1219.0,0.2106
1220.0,0.2138
1221.0,0.2162
1222.0,0.2103
1223.0,0.2081
1224.0,0.2063
1225.0,0.2148
1226.0,0.2167
1227.0,0.1983
1228.0,0.2181
1229.0,0.2167
1230.0,0.2127
1231.0,0.2198
1232.0,0.2184
1233.0,0.2096
1234.0,0.2199
1235.0,0.2183
1236.0,0.22
1237.0,0.2164
1238.0,0.2193
1239.0,0.2165
1240.0,0.2173
1241.0,0.216
1242.0,0.2158
1243.0,0.2141
1244.0,0.2155
1245.0,0.2165
1246.0,0.2152
1247.0,0.2143
1248.0,0.214
1249.0,0.2148
1250.0,0.2134
1251.0,0.2105
1252.0,0.2108
1253.0,0.2086
1254.0,0.2062
1255.0,0.2104
1256.0,0.2037
1257.0,0.2024
1258.0,0.2068
1259.0,0.198
1260.0,0.1992
1261.0,0.1864
1262.0,0.18
1263.0,0.1803
1264.0,0.1644
1265.0,0.1791
1266.0,0.1712
1267.0,0.175
1268.0,0.1647
1269.0,0.09403
1270.0,0.1741
1271.0,0.186
1272.0,0.1868
1273.0,0.1846
1274.0,0.1855
1275.0,0.1885
1276.0,0.1906
1277.0,0.1923
1278.0,0.1966
1279.0,0.1948
1280.0,0.1924
1281.0,0.1839
1282.0,0.1777
1283.0,0.1912
1284.0,0.1957
1285.0,0.1971
1286.0,0.2
1287.0,0.1964
1288.0,0.1965
1289.0,0.1893
1290.0,0.1949
1291.0,0.1978
1292.0,0.1839
1293.0,0.1935
1294.0,0.192
1295.0,0.1905
1296.0,0.1807
1297.0,0.17
1298.0,0.1849
1299.0,0.1939
1300.0,0.1609
1301.0,0.1665
1302.0,0.1844
1303.0,0.1592
1304.0,0.1328
1305.0,0.1804
1306.0,0.1802
1307.0,0.1368
1308.0,0.1599
1309.0,0.1784
1310.0,0.134
1311.0,0.1527
1312.0,0.148
1313.0,0.1446
1314.0,0.1284
1315.0,0.126
1316.0,0.1497
1317.0,0.1414
1318.0,0.155
1319.0,0.1175
1320.0,0.1146
1321.0,0.1348
1322.0,0.1355
1323.0,0.09894
1324.0,0.1154
1325.0,0.1473
1326.0,0.1245
1327.0,0.1182
1328.0,0.101
1329.0,0.07315
1330.0,0.09658
1331.0,0.0552
1332.0,0.05802
1333.0,0.08142
1334.0,0.07067
1335.0,0.09846
1336.0,0.07618
1337.0,0.06662
1338.0,0.07203
1339.0,0.07216
1340.0,0.07107
1341.0,0.06734
1342.0,0.07094
1343.0,0.04421
1344.0,0.02677
1345.0,0.03866
1346.0,0.01695
1347.0,0.01685
1348.0,0.0008269
1349.0,0.003205
1350.0,0.003514
1351.0,0.0006622
1352.0,0.000133
1353.0,5.126e-06
1354.0,2.152e-05
1355.0,9.412e-08
1356.0,2.465e-06
1357.0,3.771e-06
1358.0,1.143e-07
1359.0,8.988e-09
1360.0,4.423e-08
1361.0,1.88e-11
1362.0,3.536e-14
1363.0,5.039e-08
1364.0,2.094e-08
1365.0,7.386e-15
1366.0,2.493e-07
1367.0,1.141e-07
1368.0,2.319e-17
1369.0,7.696e-09
1370.0,3.111e-09
1371.0,1.411e-10
1372.0,6.328e-08
1373.0,1.739e-06
1374.0,1.003e-05
1375.0,1.775e-05
1376.0,1.962e-05
1377.0,8.599e-06
1378.0,9.089e-05
1379.0,3.61e-06
1380.0,4.507e-06
1381.0,1.055e-07
1382.0,5.383e-08
1383.0,6.931e-10
1384.0,7.995e-09
1385.0,6.438e-08
1386.0,4.151e-08
1387.0,8.95e-06
1388.0,1.836e-07
1389.0,3.919e-05
1390.0,3.332e-05
1391.0,2.146e-05
1392.0,1.325e-06
1393.0,7.867e-06
1394.0,2.812e-06
1395.0,1.66e-08
1396.0,3.09e-11
1397.0,2.88e-06
1398.0,9.917e-05
1399.0,6.362e-05
1400.0,1.027e-11
1401.0,6.101e-11
1402.0,0.0002441
1403.0,0.000288
1404.0,8.528e-05
1405.0,6.811e-09
1406.0,0.0001992
1407.0,1.949e-05
1408.0,0.0001664
1409.0,4.672e-05
1410.0,4.284e-05
1411.0,0.0002566
1412.0,0.0003773
1413.0,0.004942
1414.0,3.466e-05
1415.0,1.535e-05
1416.0,0.009594
1417.0,0.002461
1418.0,0.002685
1419.0,0.0004004
1420.0,0.00163
1421.0,0.001799
1422.0,0.0126
1423.0,0.002337
1424.0,0.004516
1425.0,0.006391
1426.0,0.007833
1427.0,0.01568
1428.0,0.000756
1429.0,0.01105
1430.0,0.02061
1431.0,0.02309
1432.0,0.0005878
1433.0,0.01409
1434.0,0.006872
1435.0,0.005894
1436.0,0.01285
1437.0,0.009895
