interpolation:linear
wavelength,value
280.0,1.273e-21
280.5,4.077e-20
281.0,2.166e-19
281.5,5.063e-19
282.0,9.804e-19
282.5,2.453e-18
283.0,7.749e-18
283.5,1.26e-17
284.0,2.037e-16
284.5,5.888e-16
285.0,1.195e-15
285.5,5.743e-15
286.0,2.293e-14
286.5,1.013e-13
287.0,2.872e-13
287.5,1.091e-12
288.0,3.28e-12
288.5,1.034e-11
289.0,2.828e-11
289.5,8.694e-11
290.0,2.438e-10
290.5,5.003e-10
291.0,1.08e-09
291.5,3.112e-09
292.0,6.342e-09
292.5,9.222e-09
293.0,2.065e-08
293.5,5.31e-08
294.0,8.613e-08
294.5,1.129e-07
295.0,1.975e-07
295.5,4.669e-07
296.0,8.511e-07
296.5,1.234e-06
297.0,1.727e-06
297.5,4.912e-06
298.0,8.207e-06
298.5,8.684e-06
299.0,2.021e-05
299.5,3.733e-05
300.0,4.389e-05
300.5,6.854e-05
301.0,0.0001423
301.5,0.0002633
302.0,0.0002467
302.5,0.0004941
303.0,0.0009178
303.5,0.001183
304.0,0.001132
304.5,0.001769
305.0,0.00286
305.5,0.00341
306.0,0.003353
306.5,0.004283
307.0,0.006719
307.5,0.009419
308.0,0.01004
308.5,0.01216
309.0,0.01216
309.5,0.01436
310.0,0.01464
310.5,0.02389
311.0,0.03036
311.5,0.02946
312.0,0.03023
312.5,0.03741
313.0,0.04095
313.5,0.03945
314.0,0.05033
314.5,0.04583
315.0,0.06052
315.5,0.05
316.0,0.04461
316.5,0.06524
317.0,0.08099
317.5,0.08388
318.0,0.06626
318.5,0.08421
319.0,0.1011
319.5,0.08093
320.0,0.09754
320.5,0.125
321.0,0.1136
321.5,0.1092
322.0,0.1139
322.5,0.0992
323.0,0.1003
323.5,0.1248
324.0,0.1461
324.5,0.1475
325.0,0.1266
325.5,0.1647
326.0,0.202
326.5,0.2038
327.0,0.2026
327.5,0.1951
328.0,0.1722
328.5,0.1831
329.0,0.2212
329.5,0.2519
330.0,0.2536
330.5,0.2016
331.0,0.205
331.5,0.2095
332.0,0.2281
332.5,0.2264
333.0,0.2254
333.5,0.2029
334.0,0.2078
334.5,0.2413
335.0,0.2277
335.5,0.2661
336.0,0.1842
336.5,0.2153
337.0,0.1762
337.5,0.2191
338.0,0.215
338.5,0.2485
339.0,0.2461
339.5,0.2368
340.0,0.2782
340.5,0.251
341.0,0.2449
341.5,0.2251
342.0,0.2691
342.5,0.2519
343.0,0.277
343.5,0.2609
344.0,0.1928
344.5,0.1948
345.0,0.2581
345.5,0.2637
346.0,0.2243
346.5,0.2541
347.0,0.2728
347.5,0.2206
348.0,0.2517
348.5,0.2517
349.0,0.2337
349.5,0.2315
350.0,0.2864
350.5,0.3022
351.0,0.27
351.5,0.2624
352.0,0.2821
352.5,0.2203
353.0,0.2776
353.5,0.297
354.0,0.3085
354.5,0.3129
355.0,0.3119
355.5,0.282
356.0,0.2952
356.5,0.2521
357.0,0.2084
357.5,0.2552
358.0,0.2023
358.5,0.1729
359.0,0.2419
359.5,0.3083
360.0,0.327
360.5,0.2615
361.0,0.2385
361.5,0.2748
362.0,0.2378
362.5,0.3294
363.0,0.296
363.5,0.2728
364.0,0.3338
364.5,0.2855
365.0,0.2909
365.5,0.3652
366.0,0.3872
366.5,0.364
367.0,0.3546
367.5,0.3681
368.0,0.3223
368.5,0.3254
369.0,0.3516
369.5,0.3749
370.0,0.3998
370.5,0.3105
371.0,0.3319
371.5,0.4154
372.0,0.2758
372.5,0.3308
373.0,0.3367
373.5,0.2192
374.0,0.3186
374.5,0.264
375.0,0.2567
375.5,0.3834
376.0,0.3179
376.5,0.3296
377.0,0.3491
377.5,0.4086
378.0,0.4431
378.5,0.4189
379.0,0.3458
379.5,0.3159
380.0,0.3286
380.5,0.3982
381.0,0.3993
381.5,0.3167
382.0,0.2814
382.5,0.2401
383.0,0.2224
383.5,0.2143
384.0,0.2365
384.5,0.348
385.0,0.3452
385.5,0.3217
386.0,0.2756
386.5,0.3622
387.0,0.3011
387.5,0.3383
388.0,0.3125
388.5,0.309
389.0,0.3337
389.5,0.4044
390.0,0.406
390.5,0.3738
391.0,0.4402
391.5,0.4491
392.0,0.3784
392.5,0.339
393.0,0.1887
393.5,0.1372
394.0,0.2794
394.5,0.3553
395.0,0.4337
395.5,0.4407
396.0,0.3823
396.5,0.2236
397.0,0.1679
397.5,0.3415
398.0,0.4783
398.5,0.4946
399.0,0.5359
399.5,0.5344
400.0,0.555
401.0,0.5618
402.0,0.5932
403.0,0.564
404.0,0.5557
405.0,0.556
406.0,0.5474
407.0,0.539
408.0,0.5603
409.0,0.6
410.0,0.5247
411.0,0.5687
412.0,0.6114
413.0,0.5965
414.0,0.6042
415.0,0.6063
416.0,0.6174
417.0,0.6025
418.0,0.5917
419.0,0.5998
420.0,0.5975
421.0,0.6254
422.0,0.5947
423.0,0.5813
424.0,0.615
425.0,0.6143
426.0,0.5989
427.0,0.588
428.0,0.573
429.0,0.5432
430.0,0.4756
431.0,0.4715
432.0,0.6092
433.0,0.6129
434.0,0.5693
435.0,0.5946
436.0,0.6705
437.0,0.662
438.0,0.6032
439.0,0.6236
440.0,0.6438
441.0,0.6676
442.0,0.7162
443.0,0.6975
444.0,0.7131
445.0,0.6977
446.0,0.6664
447.0,0.721
448.0,0.7321
449.0,0.7356
450.0,0.7566
451.0,0.7849
452.0,0.7565
453.0,0.7118
454.0,0.7435
455.0,0.7482
456.0,0.7662
457.0,0.7791
458.0,0.7523
459.0,0.7487
460.0,0.7506
461.0,0.7681
462.0,0.7744
463.0,0.7691
464.0,0.7569
465.0,0.7479
466.0,0.7555
467.0,0.7417
468.0,0.7505
469.0,0.7545
470.0,0.7304
471.0,0.7296
472.0,0.7688
473.0,0.7589
474.0,0.7597
475.0,0.7659
476.0,0.7426
477.0,0.7444
478.0,0.7652
479.0,0.7609
480.0,0.7626
481.0,0.7773
482.0,0.7818
483.0,0.7729
484.0,0.7573
485.0,0.7218
486.0,0.6313
487.0,0.662
488.0,0.7262
489.0,0.7284
490.0,0.7665
491.0,0.7535
492.0,0.7117
493.0,0.7351
494.0,0.7425
495.0,0.7489
496.0,0.7536
497.0,0.7652
498.0,0.7294
499.0,0.7386
500.0,0.7169
501.0,0.7034
502.0,0.693
503.0,0.7207
504.0,0.7007
505.0,0.7272
506.0,0.7506
507.0,0.7144
508.0,0.6926
509.0,0.7125
510.0,0.7091
511.0,0.7284
512.0,0.7366
513.0,0.6972
514.0,0.6926
515.0,0.6857
516.0,0.684
517.0,0.6079
518.0,0.639
519.0,0.6702
520.0,0.6946
521.0,0.7011
522.0,0.7016
523.0,0.6889
524.0,0.7132
525.0,0.7212
526.0,0.6888
527.0,0.6487
528.0,0.6859
529.0,0.7227
530.0,0.7122
531.0,0.7226
532.0,0.6977
533.0,0.6773
534.0,0.6974
535.0,0.7129
536.0,0.7196
537.0,0.6914
538.0,0.7037
539.0,0.6978
540.0,0.6689
541.0,0.6728
542.0,0.6937
543.0,0.6868
544.0,0.6983
545.0,0.6962
546.0,0.6988
547.0,0.6989
548.0,0.6907
549.0,0.693
550.0,0.7012
551.0,0.6928
552.0,0.6976
553.0,0.6851
554.0,0.7014
555.0,0.7027
556.0,0.6935
557.0,0.6718
558.0,0.6664
559.0,0.6537
560.0,0.6617
561.0,0.67
562.0,0.6649
563.0,0.6827
564.0,0.6638
565.0,0.6578
566.0,0.6479
567.0,0.6598
568.0,0.653
569.0,0.6358
570.0,0.6359
571.0,0.6325
572.0,0.6465
573.0,0.6532
574.0,0.6509
575.0,0.6383
576.0,0.6325
577.0,0.6396
578.0,0.6305
579.0,0.6338
580.0,0.6471
581.0,0.6514
582.0,0.6646
583.0,0.6669
584.0,0.6731
585.0,0.657
586.0,0.6435
587.0,0.6571
588.0,0.6389
589.0,0.5618
590.0,0.5879
591.0,0.6246
592.0,0.6152
593.0,0.6263
594.0,0.6211
595.0,0.6042
596.0,0.6315
597.0,0.6238
598.0,0.6233
599.0,0.6243
600.0,0.6261
601.0,0.6217
602.0,0.6175
603.0,0.6281
604.0,0.6387
605.0,0.6356
606.0,0.6333
607.0,0.64
608.0,0.6333
609.0,0.6347
610.0,0.6306
611.0,0.6341
612.0,0.6325
613.0,0.6247
614.0,0.6165
615.0,0.6302
616.0,0.6097
617.0,0.6087
618.0,0.6323
619.0,0.626
620.0,0.6299
621.0,0.6302
622.0,0.6226
623.0,0.6128
624.0,0.6026
625.0,0.6013
626.0,0.6101
627.0,0.6161
628.0,0.5658
629.0,0.5982
630.0,0.5841
631.0,0.6005
632.0,0.594
633.0,0.6134
634.0,0.6085
635.0,0.6185
636.0,0.6109
637.0,0.6214
638.0,0.6281
639.0,0.6215
640.0,0.6159
641.0,0.6158
642.0,0.6134
643.0,0.6217
644.0,0.6201
645.0,0.6209
646.0,0.6053
647.0,0.5954
648.0,0.5959
649.0,0.5841
650.0,0.5903
651.0,0.6166
652.0,0.5873
653.0,0.6085
654.0,0.6021
655.0,0.5779
656.0,0.5134
657.0,0.5274
658.0,0.5921
659.0,0.5968
660.0,0.5996
661.0,0.6039
662.0,0.6044
663.0,0.5927
664.0,0.6007
665.0,0.602
666.0,0.6027
667.0,0.6026
668.0,0.6032
669.0,0.6128
670.0,0.6103
671.0,0.6104
672.0,0.6053
673.0,0.6145
674.0,0.6124
675.0,0.607
676.0,0.6113
677.0,0.6054
678.0,0.6072
679.0,0.5975
680.0,0.6024
681.0,0.5985
682.0,0.5977
683.0,0.5966
684.0,0.5936
685.0,0.5989
686.0,0.5951
687.0,0.3542
688.0,0.4338
689.0,0.436
690.0,0.4638
691.0,0.4957
692.0,0.5199
693.0,0.5151
694.0,0.5113
695.0,0.5375
696.0,0.5385
697.0,0.5776
698.0,0.5685
699.0,0.5508
700.0,0.5439
701.0,0.537
702.0,0.5423
703.0,0.5435
704.0,0.5634
705.0,0.5642
706.0,0.5647
707.0,0.5655
708.0,0.5666
709.0,0.569
710.0,0.5681
711.0,0.5679
712.0,0.567
713.0,0.5606
714.0,0.5629
715.0,0.5435
716.0,0.5434
717.0,0.4563
718.0,0.4173
719.0,0.381
720.0,0.3977
721.0,0.4479
722.0,0.5219
723.0,0.481
724.0,0.4277
725.0,0.4188
726.0,0.4391
727.0,0.4491
728.0,0.417
729.0,0.438
730.0,0.4628
731.0,0.4415
732.0,0.4778
733.0,0.5111
734.0,0.5248
735.0,0.5131
736.0,0.5123
737.0,0.5143
738.0,0.5261
739.0,0.5157
740.0,0.5303
741.0,0.5257
742.0,0.5269
743.0,0.5406
744.0,0.5395
745.0,0.5399
746.0,0.5424
747.0,0.5437
748.0,0.5426
749.0,0.5364
750.0,0.5361
751.0,0.5307
752.0,0.5331
753.0,0.5358
754.0,0.537
755.0,0.534
756.0,0.5338
757.0,0.5345
758.0,0.5278
759.0,0.5147
760.0,0.05292
761.0,0.02339
762.0,0.2207
763.0,0.09074
764.0,0.1527
765.0,0.2206
766.0,0.2897
767.0,0.3862
768.0,0.4631
769.0,0.4769
770.0,0.4977
771.0,0.5037
772.0,0.5054
773.0,0.5091
774.0,0.5068
775.0,0.5031
776.0,0.5092
777.0,0.5025
778.0,0.4995
779.0,0.4999
780.0,0.4971
781.0,0.4977
782.0,0.5008
783.0,0.4922
784.0,0.4946
785.0,0.4908
786.0,0.496
787.0,0.4855
788.0,0.4786
789.0,0.4783
790.0,0.463
791.0,0.4695
792.0,0.4664
793.0,0.4586
794.0,0.4691
795.0,0.4763
796.0,0.4581
797.0,0.4585
798.0,0.4754
799.0,0.4717
800.0,0.4626
801.0,0.4604
802.0,0.459
803.0,0.4551
804.0,0.4561
805.0,0.4557
806.0,0.4703
807.0,0.4642
808.0,0.4648
809.0,0.4547
810.0,0.4501
811.0,0.4487
812.0,0.4336
813.0,0.4233
814.0,0.365
815.0,0.3631
816.0,0.3371
817.0,0.3439
818.0,0.3293
819.0,0.3746
820.0,0.3504
821.0,0.4187
822.0,0.4053
823.0,0.2615
824.0,0.3901
825.0,0.4113
826.0,0.3928
827.0,0.4175
828.0,0.3454
829.0,0.391
830.0,0.3851
831.0,0.3866
832.0,0.3732
833.0,0.4012
834.0,0.3842
835.0,0.4283
836.0,0.4059
837.0,0.4297
838.0,0.4143
839.0,0.4237
840.0,0.4335
841.0,0.4265
842.0,0.4288
843.0,0.4299
844.0,0.4232
845.0,0.4385
846.0,0.4368
847.0,0.4291
848.0,0.4258
849.0,0.4137
850.0,0.3964
851.0,0.4191
852.0,0.4164
853.0,0.4014
854.0,0.3461
855.0,0.3809
856.0,0.416
857.0,0.4257
858.0,0.4223
859.0,0.423
860.0,0.424
861.0,0.4216
862.0,0.4283
863.0,0.4384
864.0,0.4165
865.0,0.413
866.0,0.3713
867.0,0.3875
868.0,0.4217
869.0,0.413
870.0,0.4248
871.0,0.419
872.0,0.4176
873.0,0.4167
874.0,0.4118
875.0,0.4034
876.0,0.4076
877.0,0.4117
878.0,0.4161
879.0,0.4097
880.0,0.4009
881.0,0.3946
882.0,0.403
883.0,0.4046
884.0,0.4026
885.0,0.4057
886.0,0.3854
887.0,0.3905
888.0,0.3957
889.0,0.4012
890.0,0.3966
891.0,0.3965
892.0,0.3834
893.0,0.3697
894.0,0.3531
895.0,0.3292
896.0,0.3087
897.0,0.2597
898.0,0.2863
899.0,0.2114
900.0,0.2966
901.0,0.2216
902.0,0.2686
903.0,0.2683
904.0,0.3505
905.0,0.3367
906.0,0.3136
907.0,0.2462
908.0,0.2525
909.0,0.2772
910.0,0.2382
911.0,0.2587
912.0,0.2714
913.0,0.2414
914.0,0.2408
915.0,0.2608
916.0,0.2195
917.0,0.2856
918.0,0.2246
919.0,0.2929
920.0,0.3004
921.0,0.3126
922.0,0.2744
923.0,0.3024
924.0,0.2803
925.0,0.2744
926.0,0.2768
927.0,0.3149
928.0,0.2166
929.0,0.1938
930.0,0.1463
931.0,0.1391
932.0,0.09397
933.0,0.07346
934.0,0.03431
935.0,0.07754
936.0,0.04451
937.0,0.04481
938.0,0.05656
939.0,0.1347
940.0,0.1666
941.0,0.1198
942.0,0.1421
943.0,0.08888
944.0,0.09805
945.0,0.1247
946.0,0.05741
947.0,0.1237
948.0,0.09015
949.0,0.1715
950.0,0.03901
951.0,0.1699
952.0,0.0835
953.0,0.113
954.0,0.1444
955.0,0.1149
956.0,0.1161
957.0,0.08304
958.0,0.1719
959.0,0.1296
960.0,0.1453
961.0,0.1686
962.0,0.159
963.0,0.1881
964.0,0.1709
965.0,0.1876
966.0,0.1867
967.0,0.1853
968.0,0.2663
969.0,0.276
970.0,0.2515
971.0,0.2958
972.0,0.2813
973.0,0.237
974.0,0.224
975.0,0.2355
976.0,0.2192
977.0,0.2583
978.0,0.2417
979.0,0.2555
980.0,0.2389
981.0,0.2943
982.0,0.2785
983.0,0.2657
984.0,0.3067
985.0,0.2774
986.0,0.3143
987.0,0.3056
988.0,0.3052
989.0,0.3147
990.0,0.3032
991.0,0.3153
992.0,0.3174
993.0,0.3079
994.0,0.3176
995.0,0.3175
996.0,0.3158
997.0,0.3164
998.0,0.3148
999.0,0.3137
1000.0,0.3109
1001.0,0.3155
1002.0,0.3044
1003.0,0.3098
1004.0,0.3015
1005.0,0.2914
1006.0,0.3023
1007.0,0.3089
1008.0,0.3069
1009.0,0.3047
1010.0,0.3032
1011.0,0.3074
1012.0,0.3043
1013.0,0.3068
1014.0,0.3047
1015.0,0.3026
1016.0,0.3012
1017.0,0.3018
1018.0,0.301
1019.0,0.2937
1020.0,0.2993
1021.0,0.299
1022.0,0.2964
1023.0,0.2995
1024.0,0.2946
1025.0,0.2996
1026.0,0.298
1027.0,0.2974
1028.0,0.2967
1029.0,0.2931
1030.0,0.2955
1031.0,0.2941
1032.0,0.2934
1033.0,0.289
1034.0,0.289
1035.0,0.2899
1036.0,0.2913
1037.0,0.2866
1038.0,0.2878
1039.0,0.2876
1040.0,0.2864
1041.0,0.2875
1042.0,0.2855
1043.0,0.2845
1044.0,0.2855
1045.0,0.2815
1046.0,0.2784
1047.0,0.2808
1048.0,0.2823
1049.0,0.2812
1050.0,0.2798
1051.0,0.2793
1052.0,0.2781
1053.0,0.2758
1054.0,0.2762
1055.0,0.2763
1056.0,0.2751
1057.0,0.2742
1058.0,0.2673
1059.0,0.2674
1060.0,0.267
1061.0,0.2666
1062.0,0.2678
1063.0,0.265
1064.0,0.2682
1065.0,0.2659
1066.0,0.261
1067.0,0.2642
1068.0,0.2582
1069.0,0.2504
1070.0,0.2587
1071.0,0.2635
1072.0,0.2599
1073.0,0.2563
1074.0,0.2638
1075.0,0.2481
1076.0,0.2635
1077.0,0.2574
1078.0,0.2519
1079.0,0.2597
1080.0,0.2534
1081.0,0.2441
1082.0,0.2501
1083.0,0.2514
1084.0,0.2429
1085.0,0.2542
1086.0,0.2285
1087.0,0.2383
1088.0,0.2507
1089.0,0.2407
1090.0,0.2341
1091.0,0.2493
1092.0,0.2491
1093.0,0.2048
1094.0,0.2271
1095.0,0.2139
1096.0,0.203
1097.0,0.2434
1098.0,0.1989
1099.0,0.2085
1100.0,0.1912
1101.0,0.1945
1102.0,0.184
1103.0,0.1809
1104.0,0.1813
1105.0,0.2032
1106.0,0.1449
1107.0,0.191
1108.0,0.1556
1109.0,0.1571
1110.0,0.1882
1111.0,0.1194
1112.0,0.1564
1113.0,0.09131
1114.0,0.1027
1115.0,0.08463
1116.0,0.06296
1117.0,0.01869
1118.0,0.06986
1119.0,0.03081
1120.0,0.03835
1121.0,0.05307
1122.0,0.01918
1123.0,0.03483
1124.0,0.02934
1125.0,0.03923
1126.0,0.01065
1127.0,0.04454
1128.0,0.02325
1129.0,0.02506
1130.0,0.01555
1131.0,0.09332
1132.0,0.0715
1133.0,0.04053
1134.0,0.008102
1135.0,0.003182
1136.0,0.03218
1137.0,0.08989
1138.0,0.06247
1139.0,0.1031
1140.0,0.08235
1141.0,0.05947
1142.0,0.07031
1143.0,0.1041
1144.0,0.03183
1145.0,0.03914
1146.0,0.04216
1147.0,0.01182
1148.0,0.08971
1149.0,0.06877
1150.0,0.03495
1151.0,0.06196
1152.0,0.07969
1153.0,0.08035
1154.0,0.03782
1155.0,0.1074
1156.0,0.09474
1157.0,0.11
1158.0,0.1087
1159.0,0.1196
1160.0,0.09991
1161.0,0.1286
1162.0,0.1288
1163.0,0.1835
1164.0,0.154
1165.0,0.1418
1166.0,0.1435
1167.0,0.158
1168.0,0.1589
1169.0,0.1638
1170.0,0.1809
1171.0,0.1761
1172.0,0.1812
1173.0,0.1805
1174.0,0.1221
1175.0,0.1779
1176.0,0.1993
1177.0,0.1888
1178.0,0.1367
1179.0,0.201
1180.0,0.1753
1181.0,0.1812
1182.0,0.1194
1183.0,0.1792
1184.0,0.1661
1185.0,0.1586
1186.0,0.1937
1187.0,0.1827
1188.0,0.1205
1189.0,0.1699
1190.0,0.1896
1191.0,0.1766
1192.0,0.1926
1193.0,0.1834
1194.0,0.1898
1195.0,0.1771
1196.0,0.1693
1197.0,0.1909
1198.0,0.1734
1199.0,0.1426
1200.0,0.1809
1201.0,0.1728
1202.0,0.1731
1203.0,0.171
1204.0,0.1473
1205.0,0.1785
1206.0,0.1997
1207.0,0.172
1208.0,0.1707
1209.0,0.1746
1210.0,0.183
1211.0,0.1725
1212.0,0.1679
1213.0,0.1919
1214.0,0.173
1215.0,0.1693
1216.0,0.1915
1217.0,0.1855
1218.0,0.1898
1219.0,0.187
1220.0,0.1901
1221.0,0.1926
1222.0,0.1871
1223.0,0.185
1224.0,0.183
1225.0,0.1912
1226.0,0.1932
1227.0,0.1757
1228.0,0.1947
1229.0,0.1932
1230.0,0.1895
1231.0,0.1964
1232.0,0.1952
1233.0,0.1864
1234.0,0.1967
1235.0,0.1952
1236.0,0.1968
1237.0,0.1932
1238.0,0.1962
1239.0,0.1936
1240.0,0.1945
1241.0,0.193
1242.0,0.1931
1243.0,0.1915
1244.0,0.1927
1245.0,0.1937
1246.0,0.1926
1247.0,0.1917
1248.0,0.1913
1249.0,0.1921
1250.0,0.1908
1251.0,0.188
1252.0,0.1885
1253.0,0.1862
1254.0,0.1838
1255.0,0.1881
1256.0,0.1814
1257.0,0.1802
1258.0,0.1846
1259.0,0.1758
1260.0,0.177
1261.0,0.1645
1262.0,0.1582
1263.0,0.1584
1264.0,0.1431
1265.0,0.1574
1266.0,0.1496
1267.0,0.1536
1268.0,0.1436
1269.0,0.07678
1270.0,0.1525
1271.0,0.1642
1272.0,0.1651
1273.0,0.163
1274.0,0.1639
1275.0,0.1668
1276.0,0.1689
1277.0,0.1707
1278.0,0.175
1279.0,0.1733
1280.0,0.1712
1281.0,0.1639
1282.0,0.1587
1283.0,0.1708
1284.0,0.1747
1285.0,0.176
1286.0,0.1788
1287.0,0.1752
1288.0,0.1754
1289.0,0.1682
1290.0,0.174
1291.0,0.1767
1292.0,0.163
1293.0,0.1725
1294.0,0.1712
1295.0,0.1695
1296.0,0.1599
1297.0,0.1499
1298.0,0.1643
1299.0,0.173
1300.0,0.1416
1301.0,0.1468
1302.0,0.1638
1303.0,0.1402
1304.0,0.1151
1305.0,0.1602
1306.0,0.1598
1307.0,0.1193
1308.0,0.1413
1309.0,0.1579
1310.0,0.1167
1311.0,0.1344
1312.0,0.13
1313.0,0.1266
1314.0,0.1117
1315.0,0.1092
1316.0,0.1314
1317.0,0.1239
1318.0,0.1366
1319.0,0.1013
1320.0,0.09931
1321.0,0.1175
1322.0,0.1177
1323.0,0.08417
1324.0,0.09954
1325.0,0.1291
1326.0,0.108
1327.0,0.1022
1328.0,0.08665
1329.0,0.0612
1330.0,0.08165
1331.0,0.04495
1332.0,0.04779
1333.0,0.06739
1334.0,0.05963
1335.0,0.08363
1336.0,0.06372
1337.0,0.05541
1338.0,0.05981
1339.0,0.06017
1340.0,0.05978
1341.0,0.05544
1342.0,0.05855
1343.0,0.03447
1344.0,0.02109
1345.0,0.03035
1346.0,0.01223
1347.0,0.01195
1348.0,0.0004889
1349.0,0.001981
1350.0,0.002242
1351.0,0.0003568
1352.0,5.766e-05
1353.0,1.872e-06
1354.0,8.984e-06
1355.0,2.635e-08
1356.0,8.952e-07
1357.0,1.368e-06
1358.0,3.251e-08
1359.0,1.902e-09
1360.0,1.128e-08
1361.0,2.994e-12
1362.0,5.368e-15
1363.0,1.119e-08
1364.0,4.789e-09
1365.0,1.194e-15
1366.0,5.951e-08
1367.0,3.005e-08
1368.0,6.557e-18
1369.0,1.755e-09
1370.0,6.299e-10
1371.0,2.578e-11
1372.0,1.684e-08
1373.0,5.592e-07
1374.0,3.72e-06
1375.0,6.341e-06
1376.0,8.271e-06
1377.0,3.533e-06
1378.0,3.841e-05
1379.0,1.492e-06
1380.0,1.672e-06
1381.0,3.713e-08
1382.0,1.376e-08
1383.0,1.653e-10
1384.0,1.719e-09
1385.0,1.936e-08
1386.0,9.619e-09
1387.0,2.934e-06
1388.0,6.475e-08
1389.0,1.546e-05
1390.0,1.293e-05
1391.0,8.223e-06
1392.0,5.013e-07
1393.0,3.185e-06
1394.0,8.724e-07
1395.0,4.612e-09
1396.0,5.066e-12
1397.0,1.104e-06
1398.0,4.084e-05
1399.0,2.654e-05
1400.0,1.533e-12
1401.0,1.037e-11
1402.0,0.000129
1403.0,0.0001449
1404.0,4.187e-05
1405.0,1.691e-09
1406.0,8.99e-05
1407.0,9.759e-06
1408.0,7.64e-05
1409.0,1.894e-05
1410.0,1.948e-05
1411.0,0.0001305
1412.0,0.0002037
1413.0,0.003085
1414.0,1.608e-05
1415.0,6.762e-06
1416.0,0.006712
1417.0,0.001573
1418.0,0.001643
1419.0,0.0002401
1420.0,0.000994
1421.0,0.001131
1422.0,0.008818
1423.0,0.001607
1424.0,0.00317
1425.0,0.00436
1426.0,0.005608
1427.0,0.01172
1428.0,0.000438
1429.0,0.00798
1430.0,0.0157
1431.0,0.01778
1432.0,0.0003385
1433.0,0.01062
1434.0,0.005065
1435.0,0.003981
