interpolation:linear
wavelength,value
280.0,1.7960000000000002e-20
280.5,5.267e-19
281.0,2.72e-18
281.5,4.154e-19
282.0,1.602e-18
282.5,4.416e-18
283.0,1.454e-17
283.5,2.391e-17
284.0,3.8e-16
284.5,1.079e-15
285.0,1.937e-15
285.5,1.081e-14
286.0,4.471e-14
286.5,2.056e-13
287.0,5.931e-13
287.5,2.275e-12
288.0,6.391e-12
288.5,2.425e-11
289.0,7.769e-11
289.5,2.769e-10
290.0,8.666e-10
290.5,1.942e-09
291.0,4.632e-09
291.5,1.507e-08
292.0,4.066e-08
292.5,6.45e-08
293.0,1.622e-07
293.5,4.943e-07
294.0,9.155e-07
294.5,1.219e-06
295.0,2.437e-06
295.5,6.337e-06
296.0,1.237e-05
296.5,1.749e-05
297.0,2.387e-05
297.5,6.482e-05
298.0,0.0001032
298.5,0.0001047
299.0,0.0002326
299.5,0.000391
300.0,0.0004336
300.5,0.0006336
301.0,0.001164
301.5,0.001886
302.0,0.001631
302.5,0.003121
303.0,0.005451
303.5,0.006737
304.0,0.006245
304.5,0.008989
305.0,0.01295
305.5,0.01437
306.0,0.01374
306.5,0.01676
307.0,0.02375
307.5,0.03024
308.0,0.03172
308.5,0.03667
309.0,0.03561
309.5,0.03956
310.0,0.0392
310.5,0.06306
311.0,0.07825
311.5,0.07516
312.0,0.07328
312.5,0.08768
313.0,0.09426
313.5,0.09229
314.0,0.1131
314.5,0.09755
315.0,0.1276
315.5,0.1081
316.0,0.09236
316.5,0.1301
317.0,0.1616
317.5,0.1691
318.0,0.1302
318.5,0.1576
319.0,0.1846
319.5,0.1536
320.0,0.1862
320.5,0.227
321.0,0.1975
321.5,0.1889
322.0,0.2064
322.5,0.1794
323.0,0.1757
323.5,0.2126
324.0,0.2475
324.5,0.253
325.0,0.2204
325.5,0.2797
326.0,0.3407
326.5,0.3381
327.0,0.3381
327.5,0.3279
328.0,0.2955
328.5,0.3061
329.0,0.3623
329.5,0.4099
330.0,0.4146
330.5,0.3348
331.0,0.3421
331.5,0.3454
332.0,0.3696
332.5,0.364
333.0,0.3639
333.5,0.3317
334.0,0.3402
334.5,0.3894
335.0,0.3642
335.5,0.4254
336.0,0.2943
336.5,0.3454
337.0,0.2844
337.5,0.3541
338.0,0.3435
338.5,0.3964
339.0,0.3922
339.5,0.3773
340.0,0.4435
340.5,0.3996
341.0,0.3897
341.5,0.3577
342.0,0.4275
342.5,0.3999
343.0,0.4399
343.5,0.4143
344.0,0.3061
344.5,0.3093
345.0,0.4092
345.5,0.4177
346.0,0.3549
346.5,0.4019
347.0,0.4315
347.5,0.3489
348.0,0.3977
348.5,0.3975
349.0,0.3687
349.5,0.3651
350.0,0.4515
350.5,0.4763
351.0,0.4255
351.5,0.4137
352.0,0.4442
352.5,0.3466
353.0,0.4366
353.5,0.4668
354.0,0.4846
354.5,0.4915
355.0,0.4899
355.5,0.4425
356.0,0.463
356.5,0.3954
357.0,0.3267
357.5,0.4
358.0,0.317
358.5,0.2709
359.0,0.3789
359.5,0.483
360.0,0.512
360.5,0.4092
361.0,0.3731
361.5,0.4295
362.0,0.3714
362.5,0.514
363.0,0.4617
363.5,0.4253
364.0,0.5201
364.5,0.4446
365.0,0.4528
365.5,0.5684
366.0,0.6022
366.5,0.5658
367.0,0.551
367.5,0.5719
368.0,0.5005
368.5,0.5051
369.0,0.5454
369.5,0.5814
370.0,0.6198
370.5,0.4811
371.0,0.5141
371.5,0.6432
372.0,0.4269
372.5,0.5119
373.0,0.5208
373.5,0.3389
374.0,0.4924
374.5,0.4078
375.0,0.3965
375.5,0.5919
376.0,0.4907
376.5,0.5086
377.0,0.5385
377.5,0.63
378.0,0.683
378.5,0.6456
379.0,0.5329
379.5,0.4868
380.0,0.5061
380.5,0.6131
381.0,0.6144
381.5,0.4871
382.0,0.4326
382.5,0.3688
383.0,0.3414
383.5,0.3289
384.0,0.3628
384.5,0.5336
385.0,0.5292
385.5,0.4929
386.0,0.4222
386.5,0.5546
387.0,0.4609
387.5,0.5177
388.0,0.478
388.5,0.4726
389.0,0.5102
389.5,0.6179
390.0,0.6202
390.5,0.5708
391.0,0.6719
391.5,0.6854
392.0,0.5773
392.5,0.5169
393.0,0.2876
393.5,0.2091
394.0,0.4255
394.5,0.541
395.0,0.6602
395.5,0.6707
396.0,0.5816
396.5,0.34
397.0,0.2552
397.5,0.519
398.0,0.7268
398.5,0.7513
399.0,0.8136
399.5,0.811
400.0,0.8422
401.0,0.8552
402.0,0.9023
403.0,0.8572
404.0,0.8441
405.0,0.844
406.0,0.8304
407.0,0.817
408.0,0.849
409.0,0.9088
410.0,0.7941
411.0,0.8602
412.0,0.9239
413.0,0.9011
414.0,0.9121
415.0,0.9145
416.0,0.9305
417.0,0.9077
418.0,0.891
419.0,0.9027
420.0,0.8988
421.0,0.9403
422.0,0.8938
423.0,0.8731
424.0,0.9235
425.0,0.9218
426.0,0.8979
427.0,0.8811
428.0,0.8584
429.0,0.813
430.0,0.7115
431.0,0.7053
432.0,0.9106
433.0,0.9156
434.0,0.8502
435.0,0.888
436.0,1.0
437.0,0.9869
438.0,0.8987
439.0,0.9297
440.0,0.9592
441.0,0.9939
442.0,1.066
443.0,1.038
444.0,1.061
445.0,1.038
446.0,0.9904
447.0,1.071
448.0,1.087
449.0,1.092
450.0,1.122
451.0,1.164
452.0,1.121
453.0,1.054
454.0,1.1
455.0,1.107
456.0,1.134
457.0,1.152
458.0,1.113
459.0,1.108
460.0,1.111
461.0,1.136
462.0,1.145
463.0,1.137
464.0,1.118
465.0,1.104
466.0,1.114
467.0,1.094
468.0,1.107
469.0,1.112
470.0,1.077
471.0,1.076
472.0,1.133
473.0,1.119
474.0,1.121
475.0,1.13
476.0,1.097
477.0,1.1
478.0,1.131
479.0,1.124
480.0,1.126
481.0,1.146
482.0,1.152
483.0,1.138
484.0,1.114
485.0,1.062
486.0,0.9278
487.0,0.9722
488.0,1.067
489.0,1.07
490.0,1.126
491.0,1.106
492.0,1.045
493.0,1.079
494.0,1.089
495.0,1.099
496.0,1.105
497.0,1.123
498.0,1.07
499.0,1.084
500.0,1.053
501.0,1.033
502.0,1.019
503.0,1.061
504.0,1.035
505.0,1.071
506.0,1.106
507.0,1.052
508.0,1.019
509.0,1.048
510.0,1.042
511.0,1.07
512.0,1.081
513.0,1.023
514.0,1.016
515.0,1.006
516.0,1.004
517.0,0.8916
518.0,0.9374
519.0,0.9832
520.0,1.019
521.0,1.029
522.0,1.03
523.0,1.011
524.0,1.048
525.0,1.06
526.0,1.013
527.0,0.9547
528.0,1.01
529.0,1.065
530.0,1.049
531.0,1.065
532.0,1.028
533.0,0.9983
534.0,1.028
535.0,1.05
536.0,1.06
537.0,1.018
538.0,1.036
539.0,1.027
540.0,0.9846
541.0,0.9914
542.0,1.023
543.0,1.012
544.0,1.029
545.0,1.026
546.0,1.031
547.0,1.03
548.0,1.018
549.0,1.021
550.0,1.033
551.0,1.02
552.0,1.027
553.0,1.009
554.0,1.033
555.0,1.035
556.0,1.022
557.0,0.9903
558.0,0.983
559.0,0.9648
560.0,0.977
561.0,0.9897
562.0,0.9828
563.0,1.01
564.0,0.9825
565.0,0.9741
566.0,0.96
567.0,0.9783
568.0,0.9701
569.0,0.948
570.0,0.9476
571.0,0.9416
572.0,0.9649
573.0,0.9753
574.0,0.9723
575.0,0.9544
576.0,0.9456
577.0,0.9558
578.0,0.9412
579.0,0.9445
580.0,0.9618
581.0,0.9663
582.0,0.9841
583.0,0.9862
584.0,0.9945
585.0,0.9701
586.0,0.9501
587.0,0.9712
588.0,0.9488
589.0,0.8429
590.0,0.8813
591.0,0.9312
592.0,0.9202
593.0,0.9328
594.0,0.9268
595.0,0.9047
596.0,0.9385
597.0,0.9288
598.0,0.9259
599.0,0.9264
600.0,0.9273
601.0,0.9194
602.0,0.9131
603.0,0.928
604.0,0.9433
605.0,0.9383
606.0,0.9343
607.0,0.9433
608.0,0.9327
609.0,0.9342
610.0,0.9273
611.0,0.932
612.0,0.9292
613.0,0.9174
614.0,0.9047
615.0,0.9243
616.0,0.8937
617.0,0.8918
618.0,0.926
619.0,0.9166
620.0,0.9224
621.0,0.9235
622.0,0.9128
623.0,0.8991
624.0,0.8835
625.0,0.8815
626.0,0.8946
627.0,0.905
628.0,0.85
629.0,0.8853
630.0,0.865
631.0,0.8829
632.0,0.872
633.0,0.8979
634.0,0.8886
635.0,0.9022
636.0,0.89
637.0,0.9043
638.0,0.9127
639.0,0.9022
640.0,0.8933
641.0,0.8925
642.0,0.8883
643.0,0.9002
644.0,0.8971
645.0,0.8987
646.0,0.8783
647.0,0.8692
648.0,0.8701
649.0,0.8534
650.0,0.8558
651.0,0.8926
652.0,0.8573
653.0,0.8807
654.0,0.8707
655.0,0.8392
656.0,0.7431
657.0,0.763
658.0,0.8546
659.0,0.8605
660.0,0.864
661.0,0.87
662.0,0.8721
663.0,0.8547
664.0,0.8644
665.0,0.8647
666.0,0.8652
667.0,0.8643
668.0,0.8645
669.0,0.8777
670.0,0.8738
671.0,0.8736
672.0,0.866
673.0,0.879
674.0,0.8756
675.0,0.8676
676.0,0.8735
677.0,0.8647
678.0,0.8671
679.0,0.8531
680.0,0.8599
681.0,0.8542
682.0,0.8531
683.0,0.8514
684.0,0.8472
685.0,0.8544
686.0,0.8494
687.0,0.5847
688.0,0.6753
689.0,0.6774
690.0,0.7072
691.0,0.7406
692.0,0.7646
693.0,0.7586
694.0,0.7523
695.0,0.7809
696.0,0.7819
697.0,0.8267
698.0,0.8139
699.0,0.7965
700.0,0.7869
701.0,0.7796
702.0,0.7842
703.0,0.7856
704.0,0.8095
705.0,0.8107
706.0,0.8095
707.0,0.81
708.0,0.8118
709.0,0.8122
710.0,0.8125
711.0,0.8111
712.0,0.8084
713.0,0.8005
714.0,0.8035
715.0,0.7789
716.0,0.7795
717.0,0.6837
718.0,0.6292
719.0,0.5771
720.0,0.6051
721.0,0.6633
722.0,0.7538
723.0,0.7044
724.0,0.6376
725.0,0.6284
726.0,0.6574
727.0,0.6649
728.0,0.6272
729.0,0.648
730.0,0.6857
731.0,0.6568
732.0,0.6997
733.0,0.738
734.0,0.7547
735.0,0.7395
736.0,0.7385
737.0,0.7415
738.0,0.7511
739.0,0.7364
740.0,0.755
741.0,0.7471
742.0,0.7475
743.0,0.7664
744.0,0.764
745.0,0.764
746.0,0.7675
747.0,0.7692
748.0,0.7675
749.0,0.7588
750.0,0.7583
751.0,0.7506
752.0,0.7538
753.0,0.7576
754.0,0.7593
755.0,0.755
756.0,0.7547
757.0,0.7558
758.0,0.7464
759.0,0.7323
760.0,0.1411
761.0,0.07786
762.0,0.3948
763.0,0.2085
764.0,0.3035
765.0,0.3949
766.0,0.4754
767.0,0.5906
768.0,0.6742
769.0,0.6867
770.0,0.7082
771.0,0.7131
772.0,0.7144
773.0,0.7193
774.0,0.7158
775.0,0.7103
776.0,0.7189
777.0,0.7094
778.0,0.7051
779.0,0.7057
780.0,0.7017
781.0,0.7024
782.0,0.7068
783.0,0.6945
784.0,0.6978
785.0,0.6927
786.0,0.7004
787.0,0.6889
788.0,0.6807
789.0,0.6806
790.0,0.6636
791.0,0.6682
792.0,0.6632
793.0,0.6526
794.0,0.6625
795.0,0.674
796.0,0.6549
797.0,0.6557
798.0,0.6734
799.0,0.6694
800.0,0.6581
801.0,0.6564
802.0,0.6545
803.0,0.6497
804.0,0.6504
805.0,0.648
806.0,0.6654
807.0,0.6576
808.0,0.6581
809.0,0.6463
810.0,0.6414
811.0,0.643
812.0,0.6256
813.0,0.6132
814.0,0.543
815.0,0.5396
816.0,0.5027
817.0,0.5115
818.0,0.4931
819.0,0.5482
820.0,0.5175
821.0,0.6007
822.0,0.5842
823.0,0.404
824.0,0.5687
825.0,0.5905
826.0,0.5693
827.0,0.5995
828.0,0.512
829.0,0.5656
830.0,0.5586
831.0,0.5604
832.0,0.5439
833.0,0.5768
834.0,0.5576
835.0,0.6099
836.0,0.5855
837.0,0.6115
838.0,0.5932
839.0,0.6021
840.0,0.6151
841.0,0.6067
842.0,0.6076
843.0,0.6067
844.0,0.5986
845.0,0.6184
846.0,0.6156
847.0,0.604
848.0,0.6005
849.0,0.5834
850.0,0.5589
851.0,0.592
852.0,0.5877
853.0,0.5656
854.0,0.4885
855.0,0.5365
856.0,0.5863
857.0,0.5993
858.0,0.5949
859.0,0.5954
860.0,0.5963
861.0,0.5931
862.0,0.6024
863.0,0.6166
864.0,0.5858
865.0,0.5807
866.0,0.5221
867.0,0.5448
868.0,0.5929
869.0,0.5806
870.0,0.5971
871.0,0.589
872.0,0.5869
873.0,0.5857
874.0,0.5788
875.0,0.567
876.0,0.5729
877.0,0.5787
878.0,0.585
879.0,0.576
880.0,0.5637
881.0,0.5553
882.0,0.5673
883.0,0.5691
884.0,0.5665
885.0,0.5708
886.0,0.5443
887.0,0.5498
888.0,0.558
889.0,0.5642
890.0,0.5597
891.0,0.5586
892.0,0.5429
893.0,0.5264
894.0,0.5088
895.0,0.4819
896.0,0.4544
897.0,0.3919
898.0,0.4268
899.0,0.3265
900.0,0.436
901.0,0.3421
902.0,0.3991
903.0,0.4038
904.0,0.5049
905.0,0.4881
906.0,0.4571
907.0,0.3737
908.0,0.3808
909.0,0.4114
910.0,0.3657
911.0,0.3886
912.0,0.4059
913.0,0.3712
914.0,0.3677
915.0,0.3985
916.0,0.3378
917.0,0.4268
918.0,0.3464
919.0,0.434
920.0,0.4375
921.0,0.4548
922.0,0.4079
923.0,0.4393
924.0,0.4182
925.0,0.4091
926.0,0.4136
927.0,0.4618
928.0,0.3422
929.0,0.3132
930.0,0.2474
931.0,0.2342
932.0,0.1699
933.0,0.1387
934.0,0.07735
935.0,0.1414
936.0,0.08911
937.0,0.09041
938.0,0.1109
939.0,0.2269
940.0,0.2721
941.0,0.2065
942.0,0.2384
943.0,0.1576
944.0,0.1653
945.0,0.2127
946.0,0.1093
947.0,0.214
948.0,0.1573
949.0,0.2854
950.0,0.08087
951.0,0.2808
952.0,0.1522
953.0,0.1957
954.0,0.239
955.0,0.1979
956.0,0.1915
957.0,0.1526
958.0,0.27
959.0,0.2156
960.0,0.2416
961.0,0.2704
962.0,0.2559
963.0,0.2943
964.0,0.2699
965.0,0.2932
966.0,0.2934
967.0,0.2922
968.0,0.3893
969.0,0.4069
970.0,0.374
971.0,0.427
972.0,0.4087
973.0,0.3569
974.0,0.3389
975.0,0.3513
976.0,0.3342
977.0,0.3792
978.0,0.3607
979.0,0.3775
980.0,0.3551
981.0,0.4245
982.0,0.4063
983.0,0.3903
984.0,0.437
985.0,0.4047
986.0,0.4444
987.0,0.436
988.0,0.4352
989.0,0.4428
990.0,0.4325
991.0,0.4442
992.0,0.4467
993.0,0.4371
994.0,0.4466
995.0,0.446
996.0,0.444
997.0,0.4447
998.0,0.4426
999.0,0.441
1000.0,0.4379
1001.0,0.4433
1002.0,0.4314
1003.0,0.4355
1004.0,0.4249
1005.0,0.4093
1006.0,0.4253
1007.0,0.4343
1008.0,0.432
1009.0,0.4297
1010.0,0.4279
1011.0,0.4321
1012.0,0.4284
1013.0,0.431
1014.0,0.428
1015.0,0.4252
1016.0,0.4233
1017.0,0.4243
1018.0,0.4227
1019.0,0.4138
1020.0,0.4205
1021.0,0.4199
1022.0,0.4167
1023.0,0.4211
1024.0,0.4157
1025.0,0.4208
1026.0,0.419
1027.0,0.418
1028.0,0.4172
1029.0,0.4122
1030.0,0.415
1031.0,0.4134
1032.0,0.4122
1033.0,0.406
1034.0,0.406
1035.0,0.4072
1036.0,0.4094
1037.0,0.4027
1038.0,0.4045
1039.0,0.4043
1040.0,0.4026
1041.0,0.4043
1042.0,0.4014
1043.0,0.4002
1044.0,0.4016
1045.0,0.3961
1046.0,0.3918
1047.0,0.3953
1048.0,0.3975
1049.0,0.396
1050.0,0.3942
1051.0,0.3937
1052.0,0.3921
1053.0,0.389
1054.0,0.3898
1055.0,0.3901
1056.0,0.3887
1057.0,0.3875
1058.0,0.378
1059.0,0.3784
1060.0,0.3779
1061.0,0.3774
1062.0,0.3794
1063.0,0.3757
1064.0,0.3801
1065.0,0.3774
1066.0,0.3699
1067.0,0.3747
1068.0,0.3665
1069.0,0.3552
1070.0,0.3673
1071.0,0.3729
1072.0,0.3687
1073.0,0.3634
1074.0,0.3727
1075.0,0.3542
1076.0,0.3724
1077.0,0.3658
1078.0,0.359
1079.0,0.3664
1080.0,0.3602
1081.0,0.3488
1082.0,0.3542
1083.0,0.3552
1084.0,0.348
1085.0,0.361
1086.0,0.3298
1087.0,0.3401
1088.0,0.3549
1089.0,0.3442
1090.0,0.3368
1091.0,0.3538
1092.0,0.3528
1093.0,0.2999
1094.0,0.3229
1095.0,0.3123
1096.0,0.2993
1097.0,0.3446
1098.0,0.2947
1099.0,0.3073
1100.0,0.286
1101.0,0.2895
1102.0,0.2767
1103.0,0.2741
1104.0,0.2744
1105.0,0.3003
1106.0,0.231
1107.0,0.2855
1108.0,0.2427
1109.0,0.243
1110.0,0.2831
1111.0,0.193
1112.0,0.2411
1113.0,0.1545
1114.0,0.1725
1115.0,0.1431
1116.0,0.1148
1117.0,0.04274
1118.0,0.1247
1119.0,0.06233
1120.0,0.07848
1121.0,0.1039
1122.0,0.0441
1123.0,0.07091
1124.0,0.05985
1125.0,0.07798
1126.0,0.02751
1127.0,0.08793
1128.0,0.053
1129.0,0.05618
1130.0,0.03711
1131.0,0.1658
1132.0,0.1303
1133.0,0.08305
1134.0,0.0215
1135.0,0.008042
1136.0,0.06945
1137.0,0.1631
1138.0,0.115
1139.0,0.1705
1140.0,0.1428
1141.0,0.1092
1142.0,0.1255
1143.0,0.1778
1144.0,0.06257
1145.0,0.08009
1146.0,0.08638
1147.0,0.03075
1148.0,0.1539
1149.0,0.1231
1150.0,0.06726
1151.0,0.1141
1152.0,0.1401
1153.0,0.1362
1154.0,0.07768
1155.0,0.1778
1156.0,0.1603
1157.0,0.1796
1158.0,0.1776
1159.0,0.1913
1160.0,0.1638
1161.0,0.201
1162.0,0.2021
1163.0,0.2713
1164.0,0.2333
1165.0,0.2207
1166.0,0.2188
1167.0,0.238
1168.0,0.2407
1169.0,0.2462
1170.0,0.267
1171.0,0.2604
1172.0,0.2648
1173.0,0.2665
1174.0,0.1919
1175.0,0.26
1176.0,0.2849
1177.0,0.2741
1178.0,0.2072
1179.0,0.2872
1180.0,0.2574
1181.0,0.2655
1182.0,0.1847
1183.0,0.2612
1184.0,0.2453
1185.0,0.2372
1186.0,0.2796
1187.0,0.2668
1188.0,0.188
1189.0,0.2487
1190.0,0.2732
1191.0,0.2603
1192.0,0.277
1193.0,0.2657
1194.0,0.2737
1195.0,0.2595
1196.0,0.2503
1197.0,0.2735
1198.0,0.2507
1199.0,0.2147
1200.0,0.2624
1201.0,0.2536
1202.0,0.2518
1203.0,0.2498
1204.0,0.2192
1205.0,0.2572
1206.0,0.2833
1207.0,0.2513
1208.0,0.2469
1209.0,0.2519
1210.0,0.2621
1211.0,0.2502
1212.0,0.2479
1213.0,0.2744
1214.0,0.2535
1215.0,0.2488
1216.0,0.2734
1217.0,0.2665
1218.0,0.2713
1219.0,0.2681
1220.0,0.2715
1221.0,0.274
1222.0,0.2671
1223.0,0.2647
1224.0,0.2633
1225.0,0.2723
1226.0,0.2739
1227.0,0.2535
1228.0,0.2751
1229.0,0.2739
1230.0,0.2694
1231.0,0.2765
1232.0,0.2749
1233.0,0.2661
1234.0,0.2762
1235.0,0.2745
1236.0,0.2764
1237.0,0.2728
1238.0,0.2755
1239.0,0.272
1240.0,0.273
1241.0,0.2718
1242.0,0.2711
1243.0,0.2689
1244.0,0.2709
1245.0,0.272
1246.0,0.2704
1247.0,0.2694
1248.0,0.2693
1249.0,0.2701
1250.0,0.2685
1251.0,0.2651
1252.0,0.265
1253.0,0.2631
1254.0,0.2607
1255.0,0.2648
1256.0,0.2578
1257.0,0.2565
1258.0,0.261
1259.0,0.2522
1260.0,0.2534
1261.0,0.24
1262.0,0.2332
1263.0,0.2337
1264.0,0.2167
1265.0,0.2322
1266.0,0.224
1267.0,0.2275
1268.0,0.2164
1269.0,0.1386
1270.0,0.2269
1271.0,0.2391
1272.0,0.2398
1273.0,0.2373
1274.0,0.238
1275.0,0.2413
1276.0,0.2434
1277.0,0.2449
1278.0,0.2492
1279.0,0.247
1280.0,0.2439
1281.0,0.2325
1282.0,0.2238
1283.0,0.2411
1284.0,0.2469
1285.0,0.2485
1286.0,0.2517
1287.0,0.2481
1288.0,0.248
1289.0,0.2406
1290.0,0.2457
1291.0,0.2491
1292.0,0.235
1293.0,0.2445
1294.0,0.2428
1295.0,0.2419
1296.0,0.2315
1297.0,0.2195
1298.0,0.2353
1299.0,0.2447
1300.0,0.2088
1301.0,0.2148
1302.0,0.2345
1303.0,0.2058
1304.0,0.1771
1305.0,0.2298
1306.0,0.2299
1307.0,0.1803
1308.0,0.2059
1309.0,0.2283
1310.0,0.177
1311.0,0.1978
1312.0,0.1926
1313.0,0.1891
1314.0,0.1698
1315.0,0.1679
1316.0,0.1949
1317.0,0.1848
1318.0,0.2002
1319.0,0.1582
1320.0,0.1529
1321.0,0.1775
1322.0,0.1795
1323.0,0.1364
1324.0,0.1551
1325.0,0.1922
1326.0,0.1658
1327.0,0.1583
1328.0,0.1369
1329.0,0.1039
1330.0,0.1347
1331.0,0.0825
1332.0,0.0848
1333.0,0.1178
1334.0,0.09918
1335.0,0.1359
1336.0,0.1081
1337.0,0.09588
1338.0,0.1038
1339.0,0.1031
1340.0,0.1
1341.0,0.09834
1342.0,0.1032
1343.0,0.07125
1344.0,0.04259
1345.0,0.06135
1346.0,0.03131
1347.0,0.03198
1348.0,0.002228
1349.0,0.007845
1350.0,0.008031
1351.0,0.002082
1352.0,0.000604
1353.0,3.337e-05
1354.0,0.0001093
1355.0,1.038e-06
1356.0,1.64e-05
1357.0,2.494e-05
1358.0,1.222e-06
1359.0,1.743e-07
1360.0,5.842e-07
1361.0,8.491e-10
1362.0,2.605e-12
1363.0,8.208e-07
1364.0,3.426e-07
1365.0,1.056e-12
1366.0,3.474e-06
1367.0,1.394e-06
1368.0,1.085e-14
1369.0,1.29e-07
1370.0,6.705e-08
1371.0,4.064e-09
1372.0,7.669e-07
1373.0,1.426e-05
1374.0,6.265e-05
1375.0,0.0001142
1376.0,9.805e-05
1377.0,4.55e-05
1378.0,0.0004346
1379.0,1.916e-05
1380.0,2.858e-05
1381.0,7.735e-07
1382.0,7.02e-07
1383.0,1.104e-08
1384.0,1.49e-07
1385.0,6.267e-07
1386.0,6.487e-07
1387.0,6.727e-05
1388.0,1.332e-06
1389.0,0.0002147
1390.0,0.0001849
1391.0,0.0001249
1392.0,8.284e-06
1393.0,4.266e-05
1394.0,2.414e-05
1395.0,1.897e-07
1396.0,1.182e-09
1397.0,1.738e-05
1398.0,0.0004911
1399.0,0.0003112
1400.0,5.469e-10
1401.0,2.074e-09
1402.0,0.0008049
1403.0,0.001026
1404.0,0.0003145
1405.0,9.662e-08
1406.0,0.0008376
1407.0,7.285e-05
1408.0,0.0006825
1409.0,0.0002384
1410.0,0.0001862
1411.0,0.0008997
1412.0,0.001192
1413.0,0.01168
1414.0,0.0001462
1415.0,7.151e-05
1416.0,0.01877
1417.0,0.005785
1418.0,0.006605
1419.0,0.00103
1420.0,0.004045
1421.0,0.004375
1422.0,0.02447
1423.0,0.004766
1424.0,0.008912
1425.0,0.01315
1426.0,0.01485
1427.0,0.02715
1428.0,0.002104
1429.0,0.02036
1430.0,0.03457
1431.0,0.03794
1432.0,0.001659
1433.0,0.02416
1434.0,0.0123
1435.0,0.01234
1436.0,0.02376
1437.0,0.01821
1438.0,0.007703
1439.0,0.0323
1440.0,0.02419
1441.0,0.01845
1442.0,0.02046
1443.0,0.02569
1444.0,0.03561
1445.0,0.02784
1446.0,0.01251
1447.0,0.01972
