interpolation:linear
wavelength,value
280.0,2.8089999999999996e-22
280.5,9.237e-21
281.0,4.9520000000000004e-20
281.5,4.034e-19
282.0,6.622e-19
282.5,1.643e-18
283.0,5.197e-18
283.5,8.461e-18
284.0,1.394e-16
284.5,4.066e-16
285.0,6.697e-16
285.5,3.345e-15
286.0,1.349e-14
286.5,6.079e-14
287.0,1.745e-13
287.5,6.729e-13
288.0,2.33e-12
288.5,7.015e-12
289.0,1.862e-11
289.5,5.612e-11
290.0,1.556e-10
290.5,3.171e-10
291.0,6.805e-10
291.5,1.953e-09
292.0,3.94e-09
292.5,5.54e-09
293.0,1.191e-08
293.5,2.908e-08
294.0,4.555e-08
294.5,6.244e-08
295.0,1.06e-07
295.5,1.782e-07
296.0,3.471e-07
296.5,4.906e-07
297.0,6.701e-07
297.5,1.828e-06
298.0,2.929e-06
298.5,2.988e-06
299.0,6.689e-06
299.5,1.146e-05
300.0,1.284e-05
300.5,1.899e-05
301.0,3.568e-05
301.5,5.896e-05
302.0,5.14e-05
302.5,0.0001037
303.0,0.0001952
303.5,0.000255
304.0,0.0002484
304.5,0.0004081
305.0,0.0007107
305.5,0.0008904
306.0,0.0008927
306.5,0.001179
307.0,0.001998
307.5,0.003027
308.0,0.003266
308.5,0.00412
309.0,0.004186
309.5,0.005296
310.0,0.005571
310.5,0.009231
311.0,0.01203
311.5,0.0118
312.0,0.01279
312.5,0.0164
313.0,0.01829
313.5,0.01731
314.0,0.02306
314.5,0.02222
315.0,0.02963
315.5,0.02381
316.0,0.02224
316.5,0.03384
317.0,0.04197
317.5,0.04297
318.0,0.03487
318.5,0.04667
319.0,0.05751
319.5,0.04413
320.0,0.05284
320.5,0.07137
321.0,0.06805
321.5,0.0657
322.0,0.06509
322.5,0.05685
323.0,0.05939
323.5,0.07633
324.0,0.0898
324.5,0.08943
325.0,0.0754
325.5,0.1008
326.0,0.1247
326.5,0.128
327.0,0.1265
327.5,0.1208
328.0,0.1041
328.5,0.1139
329.0,0.1408
329.5,0.1614
330.0,0.1616
330.5,0.1262
331.0,0.1276
331.5,0.1321
332.0,0.1466
332.5,0.1468
333.0,0.1454
333.5,0.1291
334.0,0.1319
334.5,0.1557
335.0,0.1482
335.5,0.1737
336.0,0.1202
336.5,0.1396
337.0,0.1135
337.5,0.1407
338.0,0.14
338.5,0.1624
339.0,0.161
339.5,0.1549
340.0,0.1813
340.5,0.1638
341.0,0.1603
341.5,0.1475
342.0,0.1765
342.5,0.1653
343.0,0.1817
343.5,0.171
344.0,0.126
344.5,0.1276
345.0,0.1693
345.5,0.1732
346.0,0.1474
346.5,0.1671
347.0,0.1793
347.5,0.145
348.0,0.1656
348.5,0.1657
349.0,0.1539
349.5,0.1525
350.0,0.1887
350.5,0.1992
351.0,0.1779
351.5,0.1727
352.0,0.1858
352.5,0.1452
353.0,0.1832
353.5,0.196
354.0,0.2037
354.5,0.2066
355.0,0.206
355.5,0.1863
356.0,0.1951
356.5,0.1666
357.0,0.1377
357.5,0.1687
358.0,0.1338
358.5,0.1144
359.0,0.16
359.5,0.2039
360.0,0.2163
360.5,0.173
361.0,0.1579
361.5,0.182
362.0,0.1576
362.5,0.2184
363.0,0.1963
363.5,0.181
364.0,0.2216
364.5,0.1895
365.0,0.1931
365.5,0.2425
366.0,0.2572
366.5,0.2419
367.0,0.2357
367.5,0.2448
368.0,0.2144
368.5,0.2165
369.0,0.234
369.5,0.2495
370.0,0.2662
370.5,0.2068
371.0,0.2211
371.5,0.2768
372.0,0.1838
372.5,0.2206
373.0,0.2246
373.5,0.1462
374.0,0.2126
374.5,0.1762
375.0,0.1714
375.5,0.2561
376.0,0.2124
376.5,0.2202
377.0,0.2333
377.5,0.2732
378.0,0.2963
378.5,0.2801
379.0,0.2313
379.5,0.2113
380.0,0.2198
380.5,0.2665
381.0,0.2673
381.5,0.2121
382.0,0.1886
382.5,0.1609
383.0,0.1491
383.5,0.1438
384.0,0.1587
384.5,0.2336
385.0,0.2318
385.5,0.2161
386.0,0.1852
386.5,0.2435
387.0,0.2024
387.5,0.2275
388.0,0.2102
388.5,0.208
389.0,0.2246
389.5,0.2723
390.0,0.2735
390.5,0.2518
391.0,0.2967
391.5,0.3027
392.0,0.2551
392.5,0.2286
393.0,0.1273
393.5,0.09262
394.0,0.1886
394.5,0.24
395.0,0.293
395.5,0.2978
396.0,0.2583
396.5,0.1512
397.0,0.1135
397.5,0.2311
398.0,0.3237
398.5,0.3347
399.0,0.3629
399.5,0.3619
400.0,0.3759
401.0,0.3792
402.0,0.4007
403.0,0.3813
404.0,0.3758
405.0,0.3762
406.0,0.3707
407.0,0.3652
408.0,0.3797
409.0,0.4069
410.0,0.356
411.0,0.3862
412.0,0.4155
413.0,0.4054
414.0,0.411
415.0,0.4127
416.0,0.4205
417.0,0.4105
418.0,0.4034
419.0,0.4092
420.0,0.4077
421.0,0.4271
422.0,0.4063
423.0,0.3973
424.0,0.4204
425.0,0.4202
426.0,0.41
427.0,0.4027
428.0,0.3926
429.0,0.3725
430.0,0.3264
431.0,0.3236
432.0,0.4184
433.0,0.4211
434.0,0.3912
435.0,0.4088
436.0,0.4613
437.0,0.4558
438.0,0.4155
439.0,0.4294
440.0,0.4436
441.0,0.4602
442.0,0.4939
443.0,0.481
444.0,0.492
445.0,0.4815
446.0,0.4604
447.0,0.4985
448.0,0.506
449.0,0.509
450.0,0.5237
451.0,0.5435
452.0,0.5241
453.0,0.4934
454.0,0.5157
455.0,0.519
456.0,0.5317
457.0,0.5407
458.0,0.522
459.0,0.5196
460.0,0.5208
461.0,0.5331
462.0,0.5378
463.0,0.5342
464.0,0.5263
465.0,0.5205
466.0,0.5262
467.0,0.5164
468.0,0.5226
469.0,0.5254
470.0,0.5086
471.0,0.5083
472.0,0.5356
473.0,0.5287
474.0,0.529
475.0,0.5329
476.0,0.5162
477.0,0.5171
478.0,0.5317
479.0,0.529
480.0,0.5305
481.0,0.5411
482.0,0.5447
483.0,0.539
484.0,0.5286
485.0,0.5042
486.0,0.4413
487.0,0.4631
488.0,0.508
489.0,0.5094
490.0,0.5364
491.0,0.5275
492.0,0.4982
493.0,0.5147
494.0,0.52
495.0,0.5245
496.0,0.5278
497.0,0.5359
498.0,0.5108
499.0,0.517
500.0,0.5015
501.0,0.4918
502.0,0.4839
503.0,0.5025
504.0,0.4868
505.0,0.5066
506.0,0.523
507.0,0.4978
508.0,0.4832
509.0,0.4975
510.0,0.4955
511.0,0.5095
512.0,0.5153
513.0,0.4879
514.0,0.4848
515.0,0.48
516.0,0.4787
517.0,0.4255
518.0,0.4473
519.0,0.4691
520.0,0.4861
521.0,0.4906
522.0,0.4908
523.0,0.4817
524.0,0.4984
525.0,0.5035
526.0,0.4807
527.0,0.4524
528.0,0.4779
529.0,0.5033
530.0,0.4958
531.0,0.5029
532.0,0.4855
533.0,0.4713
534.0,0.4855
535.0,0.4965
536.0,0.5013
537.0,0.4819
538.0,0.4906
539.0,0.4864
540.0,0.4662
541.0,0.4684
542.0,0.4826
543.0,0.4782
544.0,0.4858
545.0,0.4844
546.0,0.4858
547.0,0.4862
548.0,0.4808
549.0,0.4825
550.0,0.4882
551.0,0.4824
552.0,0.4858
553.0,0.477
554.0,0.4883
555.0,0.4891
556.0,0.4826
557.0,0.4673
558.0,0.4633
559.0,0.4542
560.0,0.4595
561.0,0.465
562.0,0.4611
563.0,0.473
564.0,0.4596
565.0,0.4552
566.0,0.448
567.0,0.4559
568.0,0.4502
569.0,0.4366
570.0,0.4368
571.0,0.435
572.0,0.4434
573.0,0.4477
574.0,0.4459
575.0,0.4368
576.0,0.4329
577.0,0.4379
578.0,0.4322
579.0,0.4353
580.0,0.4458
581.0,0.4498
582.0,0.4598
583.0,0.4622
584.0,0.467
585.0,0.4561
586.0,0.4468
587.0,0.4557
588.0,0.4408
589.0,0.3833
590.0,0.4014
591.0,0.4291
592.0,0.4212
593.0,0.4307
594.0,0.4264
595.0,0.4131
596.0,0.4354
597.0,0.4291
598.0,0.4298
599.0,0.431
600.0,0.4332
601.0,0.4308
602.0,0.428
603.0,0.4357
604.0,0.4432
605.0,0.4413
606.0,0.4402
607.0,0.4453
608.0,0.441
609.0,0.4423
610.0,0.4399
611.0,0.4425
612.0,0.4417
613.0,0.4364
614.0,0.4311
615.0,0.441
616.0,0.4269
617.0,0.4264
618.0,0.4432
619.0,0.4389
620.0,0.4417
621.0,0.4416
622.0,0.436
623.0,0.4289
624.0,0.422
625.0,0.4211
626.0,0.4271
627.0,0.4305
628.0,0.3851
629.0,0.4144
630.0,0.4043
631.0,0.4192
632.0,0.4152
633.0,0.4303
634.0,0.428
635.0,0.4356
636.0,0.431
637.0,0.4389
638.0,0.4444
639.0,0.4402
640.0,0.4367
641.0,0.437
642.0,0.4358
643.0,0.4417
644.0,0.4411
645.0,0.4414
646.0,0.429
647.0,0.4192
648.0,0.4197
649.0,0.411
650.0,0.4191
651.0,0.4383
652.0,0.414
653.0,0.4329
654.0,0.4285
655.0,0.4095
656.0,0.3651
657.0,0.3753
658.0,0.4225
659.0,0.4264
660.0,0.4286
661.0,0.4318
662.0,0.4315
663.0,0.4235
664.0,0.4302
665.0,0.4319
666.0,0.4327
667.0,0.433
668.0,0.4339
669.0,0.4411
670.0,0.4395
671.0,0.4397
672.0,0.4362
673.0,0.4431
674.0,0.4417
675.0,0.438
676.0,0.4412
677.0,0.4371
678.0,0.4386
679.0,0.4317
680.0,0.4353
681.0,0.4326
682.0,0.4321
683.0,0.4313
684.0,0.4291
685.0,0.4331
686.0,0.4302
687.0,0.216
688.0,0.2832
689.0,0.2853
690.0,0.3102
691.0,0.3396
692.0,0.3629
693.0,0.3592
694.0,0.3577
695.0,0.3815
696.0,0.3825
697.0,0.4163
698.0,0.4096
699.0,0.3927
700.0,0.3876
701.0,0.3809
702.0,0.3863
703.0,0.3877
704.0,0.4044
705.0,0.4049
706.0,0.4062
707.0,0.4072
708.0,0.4079
709.0,0.4114
710.0,0.4098
711.0,0.4103
712.0,0.4105
713.0,0.405
714.0,0.4069
715.0,0.3912
716.0,0.3907
717.0,0.3132
718.0,0.2854
719.0,0.2594
720.0,0.2691
721.0,0.3117
722.0,0.3724
723.0,0.3388
724.0,0.2957
725.0,0.2878
726.0,0.3021
727.0,0.3129
728.0,0.2859
729.0,0.3055
730.0,0.3214
731.0,0.3058
732.0,0.3365
733.0,0.3649
734.0,0.3764
735.0,0.3671
736.0,0.3663
737.0,0.3678
738.0,0.3803
739.0,0.3729
740.0,0.3847
741.0,0.3821
742.0,0.3838
743.0,0.3939
744.0,0.3936
745.0,0.3944
746.0,0.3962
747.0,0.3972
748.0,0.3965
749.0,0.392
750.0,0.3918
751.0,0.3879
752.0,0.3897
753.0,0.3917
754.0,0.3926
755.0,0.3903
756.0,0.3903
757.0,0.3908
758.0,0.3858
759.0,0.3735
760.0,0.01898
761.0,0.006785
762.0,0.1224
763.0,0.03802
764.0,0.07512
765.0,0.1222
766.0,0.1776
767.0,0.2572
768.0,0.327
769.0,0.3411
770.0,0.3611
771.0,0.3677
772.0,0.3697
773.0,0.3726
774.0,0.371
775.0,0.3684
776.0,0.373
777.0,0.3681
778.0,0.3659
779.0,0.3662
780.0,0.3642
781.0,0.3646
782.0,0.367
783.0,0.3607
784.0,0.3626
785.0,0.3596
786.0,0.3633
787.0,0.3535
788.0,0.3476
789.0,0.3473
790.0,0.3336
791.0,0.341
792.0,0.3392
793.0,0.3332
794.0,0.3435
795.0,0.348
796.0,0.331
797.0,0.3309
798.0,0.3469
799.0,0.3435
800.0,0.336
801.0,0.3335
802.0,0.3324
803.0,0.3291
804.0,0.3303
805.0,0.3311
806.0,0.3436
807.0,0.3388
808.0,0.3393
809.0,0.3305
810.0,0.3263
811.0,0.3234
812.0,0.3098
813.0,0.3015
814.0,0.2533
815.0,0.2526
816.0,0.2336
817.0,0.2387
818.0,0.227
819.0,0.2639
820.0,0.245
821.0,0.3015
822.0,0.2905
823.0,0.1749
824.0,0.2762
825.0,0.2963
826.0,0.2801
827.0,0.3006
828.0,0.2404
829.0,0.2794
830.0,0.2746
831.0,0.2756
832.0,0.2646
833.0,0.2882
834.0,0.2735
835.0,0.3111
836.0,0.2905
837.0,0.3121
838.0,0.2987
839.0,0.308
840.0,0.3157
841.0,0.3097
842.0,0.3128
843.0,0.3151
844.0,0.3094
845.0,0.3217
846.0,0.3207
847.0,0.3155
848.0,0.3124
849.0,0.3035
850.0,0.2909
851.0,0.3068
852.0,0.3052
853.0,0.2947
854.0,0.2537
855.0,0.2798
856.0,0.3053
857.0,0.3129
858.0,0.3102
859.0,0.3111
860.0,0.3119
861.0,0.3101
862.0,0.3152
863.0,0.3226
864.0,0.3066
865.0,0.304
866.0,0.2734
867.0,0.2853
868.0,0.3105
869.0,0.3041
870.0,0.3128
871.0,0.3085
872.0,0.3075
873.0,0.3069
874.0,0.3033
875.0,0.2971
876.0,0.3001
877.0,0.3032
878.0,0.3063
879.0,0.3017
880.0,0.2952
881.0,0.2902
882.0,0.2962
883.0,0.2978
884.0,0.2962
885.0,0.2984
886.0,0.2823
887.0,0.287
888.0,0.2903
889.0,0.2953
890.0,0.2907
891.0,0.2913
892.0,0.28
893.0,0.2686
894.0,0.2532
895.0,0.232
896.0,0.2166
897.0,0.1778
898.0,0.198
899.0,0.1414
900.0,0.2082
901.0,0.1482
902.0,0.1862
903.0,0.1836
904.0,0.2512
905.0,0.24
906.0,0.2222
907.0,0.167
908.0,0.173
909.0,0.1926
910.0,0.1602
911.0,0.1784
912.0,0.1872
913.0,0.1621
914.0,0.1628
915.0,0.1757
916.0,0.1473
917.0,0.1968
918.0,0.1502
919.0,0.2039
920.0,0.2136
921.0,0.2217
922.0,0.1907
923.0,0.215
924.0,0.1934
925.0,0.1898
926.0,0.1906
927.0,0.2207
928.0,0.1408
929.0,0.1231
930.0,0.08829
931.0,0.08382
932.0,0.05216
933.0,0.03899
934.0,0.01485
935.0,0.04255
936.0,0.02209
937.0,0.02221
938.0,0.02886
939.0,0.08099
940.0,0.1037
941.0,0.07042
942.0,0.08557
943.0,0.05042
944.0,0.05905
945.0,0.07434
946.0,0.03021
947.0,0.07255
948.0,0.05257
949.0,0.1049
950.0,0.01901
951.0,0.1043
952.0,0.04651
953.0,0.06637
954.0,0.08868
955.0,0.06792
956.0,0.07334
957.0,0.04606
958.0,0.1121
959.0,0.07977
960.0,0.08943
961.0,0.1078
962.0,0.1016
963.0,0.1237
964.0,0.1115
965.0,0.1231
966.0,0.1223
967.0,0.1208
968.0,0.1883
969.0,0.1927
970.0,0.1746
971.0,0.2115
972.0,0.1998
973.0,0.1621
974.0,0.153
975.0,0.1626
976.0,0.1478
977.0,0.182
978.0,0.1671
979.0,0.1783
980.0,0.166
981.0,0.2106
982.0,0.197
983.0,0.1868
984.0,0.2225
985.0,0.196
986.0,0.2299
987.0,0.2215
988.0,0.2214
989.0,0.2314
990.0,0.2199
991.0,0.2317
992.0,0.2335
993.0,0.2244
994.0,0.2338
995.0,0.2341
996.0,0.2325
997.0,0.2331
998.0,0.2318
999.0,0.2311
1000.0,0.2285
1001.0,0.2324
1002.0,0.2221
1003.0,0.2281
1004.0,0.2215
1005.0,0.2148
1006.0,0.2225
1007.0,0.2275
1008.0,0.2256
1009.0,0.2236
1010.0,0.2223
1011.0,0.2265
1012.0,0.2238
1013.0,0.2262
1014.0,0.2246
1015.0,0.223
1016.0,0.2219
1017.0,0.2223
1018.0,0.222
1019.0,0.2157
1020.0,0.2205
1021.0,0.2205
1022.0,0.2182
1023.0,0.2205
1024.0,0.2161
1025.0,0.2208
1026.0,0.2195
1027.0,0.2191
1028.0,0.2185
1029.0,0.2158
1030.0,0.2178
1031.0,0.2167
1032.0,0.2162
1033.0,0.2129
1034.0,0.213
1035.0,0.2137
1036.0,0.2146
1037.0,0.2112
1038.0,0.2121
1039.0,0.2118
1040.0,0.2109
1041.0,0.2117
1042.0,0.2102
1043.0,0.2094
1044.0,0.21
1045.0,0.2071
1046.0,0.2047
1047.0,0.2065
1048.0,0.2075
1049.0,0.2066
1050.0,0.2055
1051.0,0.2051
1052.0,0.2041
1053.0,0.2023
1054.0,0.2025
1055.0,0.2024
1056.0,0.2014
1057.0,0.2006
1058.0,0.1954
1059.0,0.1954
1060.0,0.195
1061.0,0.1946
1062.0,0.1954
1063.0,0.1933
1064.0,0.1956
1065.0,0.1936
1066.0,0.1903
1067.0,0.1926
1068.0,0.188
1069.0,0.1825
1070.0,0.1883
1071.0,0.1926
1072.0,0.1893
1073.0,0.1868
1074.0,0.1932
1075.0,0.1796
1076.0,0.1928
1077.0,0.1872
1078.0,0.1826
1079.0,0.1904
1080.0,0.1844
1081.0,0.1765
1082.0,0.1826
1083.0,0.1841
1084.0,0.1753
1085.0,0.1851
1086.0,0.1638
1087.0,0.1724
1088.0,0.1833
1089.0,0.1738
1090.0,0.1682
1091.0,0.1817
1092.0,0.1819
1093.0,0.1445
1094.0,0.1652
1095.0,0.1511
1096.0,0.142
1097.0,0.1778
1098.0,0.1383
1099.0,0.1457
1100.0,0.1318
1101.0,0.1347
1102.0,0.126
1103.0,0.1229
1104.0,0.1234
1105.0,0.1415
1106.0,0.09328
1107.0,0.1316
1108.0,0.1027
1109.0,0.1044
1110.0,0.1286
1111.0,0.07551
1112.0,0.1041
1113.0,0.05521
1114.0,0.06218
1115.0,0.0507
1116.0,0.03485
1117.0,0.008159
1118.0,0.03922
1119.0,0.01509
1120.0,0.01835
1121.0,0.02656
1122.0,0.007937
1123.0,0.01676
1124.0,0.01409
1125.0,0.01946
1126.0,0.00385
1127.0,0.02225
1128.0,0.009822
1129.0,0.01074
1130.0,0.006454
1131.0,0.05247
1132.0,0.03907
1133.0,0.01934
1134.0,0.002891
1135.0,0.00122
1136.0,0.0144
1137.0,0.04936
1138.0,0.03375
1139.0,0.06297
1140.0,0.04771
1141.0,0.03223
1142.0,0.03929
1143.0,0.06143
1144.0,0.01612
1145.0,0.01862
1146.0,0.02003
1147.0,0.004233
1148.0,0.05238
1149.0,0.03836
1150.0,0.01847
1151.0,0.03349
1152.0,0.04537
1153.0,0.04761
1154.0,0.01838
1155.0,0.06552
1156.0,0.05635
1157.0,0.06874
1158.0,0.06778
1159.0,0.0759
1160.0,0.0626
1161.0,0.08453
1162.0,0.08416
1163.0,0.1276
1164.0,0.1045
1165.0,0.09359
1166.0,0.09709
1167.0,0.1081
1168.0,0.1082
1169.0,0.1121
1170.0,0.1262
1171.0,0.1229
1172.0,0.128
1173.0,0.126
1174.0,0.08031
1175.0,0.1257
1176.0,0.1442
1177.0,0.1343
1178.0,0.09345
1179.0,0.1454
1180.0,0.1233
1181.0,0.1275
1182.0,0.07959
1183.0,0.1269
1184.0,0.116
1185.0,0.1093
1186.0,0.1384
1187.0,0.129
1188.0,0.07939
1189.0,0.1198
1190.0,0.1359
1191.0,0.1233
1192.0,0.1384
1193.0,0.1307
1194.0,0.136
1195.0,0.1247
1196.0,0.118
1197.0,0.1376
1198.0,0.1241
1199.0,0.0977
1200.0,0.1289
1201.0,0.1214
1202.0,0.1232
1203.0,0.1207
1204.0,0.1022
1205.0,0.1282
1206.0,0.1455
1207.0,0.1217
1208.0,0.1222
1209.0,0.1251
1210.0,0.1322
1211.0,0.1231
1212.0,0.1172
1213.0,0.1386
1214.0,0.1216
1215.0,0.1189
1216.0,0.1386
1217.0,0.1335
1218.0,0.1373
1219.0,0.1347
1220.0,0.1377
1221.0,0.14
1222.0,0.1357
1223.0,0.1337
1224.0,0.1313
1225.0,0.1388
1226.0,0.1409
1227.0,0.1258
1228.0,0.1426
1229.0,0.141
1230.0,0.1378
1231.0,0.1444
1232.0,0.1435
1233.0,0.1349
1234.0,0.1451
1235.0,0.1437
1236.0,0.1451
1237.0,0.1416
1238.0,0.1447
1239.0,0.1428
1240.0,0.1435
1241.0,0.1419
1242.0,0.1424
1243.0,0.1413
1244.0,0.142
1245.0,0.1428
1246.0,0.142
1247.0,0.1412
1248.0,0.1406
1249.0,0.1415
1250.0,0.1403
1251.0,0.138
1252.0,0.1387
1253.0,0.1363
1254.0,0.1339
1255.0,0.1382
1256.0,0.1319
1257.0,0.1307
1258.0,0.1351
1259.0,0.1264
1260.0,0.1275
1261.0,0.1158
1262.0,0.1099
1263.0,0.11
1264.0,0.0963
1265.0,0.1094
1266.0,0.1021
1267.0,0.1061
1268.0,0.09718
1269.0,0.04178
1270.0,0.1049
1271.0,0.116
1272.0,0.1168
1273.0,0.1151
1274.0,0.1162
1275.0,0.1187
1276.0,0.1207
1277.0,0.1227
1278.0,0.1269
1279.0,0.1256
1280.0,0.1242
1281.0,0.1194
1282.0,0.1165
1283.0,0.1251
1284.0,0.1279
1285.0,0.1289
1286.0,0.1315
1287.0,0.128
1288.0,0.1284
1289.0,0.1214
1290.0,0.1274
1291.0,0.1297
1292.0,0.1167
1293.0,0.126
1294.0,0.1249
1295.0,0.1225
1296.0,0.1139
1297.0,0.1055
1298.0,0.1185
1299.0,0.1266
1300.0,0.09921
1301.0,0.1036
1302.0,0.1182
1303.0,0.09869
1304.0,0.07707
1305.0,0.1154
1306.0,0.1146
1307.0,0.08137
1308.0,0.1001
1309.0,0.1125
1310.0,0.07916
1311.0,0.09428
1312.0,0.09075
1313.0,0.08725
1314.0,0.07552
1315.0,0.07298
1316.0,0.0914
1317.0,0.08556
1318.0,0.09608
1319.0,0.06666
1320.0,0.06622
1321.0,0.08014
1322.0,0.07933
1323.0,0.05302
1324.0,0.06574
1325.0,0.08917
1326.0,0.07235
1327.0,0.06779
1328.0,0.05611
1329.0,0.03649
1330.0,0.0505
1331.0,0.02468
1332.0,0.02711
1333.0,0.03881
1334.0,0.03677
1335.0,0.05224
1336.0,0.03787
1337.0,0.03261
1338.0,0.03489
1339.0,0.03552
1340.0,0.03629
1341.0,0.03129
1342.0,0.03341
1343.0,0.01647
1344.0,0.01046
1345.0,0.01464
1346.0,0.004493
1347.0,0.004131
1348.0,0.0001006
1349.0,0.0004516
1350.0,0.0005475
1351.0,5.393e-05
1352.0,4.633e-06
1353.0,1.225e-07
1354.0,7.25e-07
1355.0,1.783e-09
1356.0,5.912e-08
1357.0,8.914e-08
1358.0,2.149e-09
1359.0,2.121e-10
1360.0,8.553e-10
1361.0,8.233e-13
1362.0,2.247e-15
1363.0,1.045e-09
1364.0,4.398e-10
1365.0,7.837e-16
1366.0,4.696e-09
1367.0,2.106e-09
1368.0,6.051e-18
1369.0,1.623e-10
1370.0,7.645e-11
1371.0,4.254e-12
1372.0,1.164e-09
1373.0,3.287e-08
1374.0,2.385e-07
1375.0,3.657e-07
1376.0,6.766e-07
1377.0,2.785e-07
1378.0,2.915e-06
1379.0,1.218e-07
1380.0,1.093e-07
1381.0,2.454e-09
1382.0,9.802e-10
1383.0,1.394e-11
1384.0,1.718e-10
1385.0,1.192e-09
1386.0,8.003e-10
1387.0,1.582e-07
1388.0,4.214e-09
1389.0,1.046e-06
1390.0,8.196e-07
1391.0,5.356e-07
1392.0,3.465e-08
1393.0,2.412e-07
1394.0,4.842e-08
1395.0,2.962e-10
1396.0,1.075e-12
1397.0,7.65e-08
1398.0,2.856e-06
1399.0,1.937e-06
1400.0,4.577e-13
1401.0,1.913e-12
1402.0,1.883e-05
1403.0,1.782e-05
1404.0,4.669e-06
1405.0,1.226e-10
1406.0,7.74e-06
1407.0,1.284e-06
1408.0,6.955e-06
1409.0,1.279e-06
1410.0,1.88e-06
1411.0,1.668e-05
1412.0,3.135e-05
1413.0,0.0006955
1414.0,1.655e-06
1415.0,6.146e-07
1416.0,0.002241
1417.0,0.000415
1418.0,0.0003501
1419.0,4.856e-05
1420.0,0.0002104
1421.0,0.0002857
1422.0,0.002923
1423.0,0.0005184
1424.0,0.00111
1425.0,0.001365
1426.0,0.00207
1427.0,0.004806
1428.0,8.344e-05
1429.0,0.002926
