interpolation:linear
wavelength,value
280.0,2.0450000000000002e-20
280.5,5.963e-19
281.0,3.073e-18
281.5,4.141e-19
282.0,1.637e-18
282.5,4.537e-18
283.0,1.498e-17
283.5,2.465e-17
284.0,3.917e-16
284.5,1.111e-15
285.0,1.958e-15
285.5,1.103e-14
286.0,4.574e-14
286.5,2.112e-13
287.0,6.107e-13
287.5,2.348e-12
288.0,6.768e-12
288.5,2.593e-11
289.0,8.387e-11
289.5,3.022e-10
290.0,9.546e-10
290.5,2.156e-09
291.0,5.19e-09
291.5,1.708e-08
292.0,4.661e-08
292.5,7.391e-08
293.0,1.857e-07
293.5,5.649e-07
294.0,1.045e-06
294.5,1.389e-06
295.0,2.769e-06
295.5,7.121e-06
296.0,1.385e-05
296.5,1.951e-05
297.0,2.656e-05
297.5,7.18e-05
298.0,0.0001139
298.5,0.0001151
299.0,0.000255
299.5,0.0004262
300.0,0.000471
300.5,0.0006857
301.0,0.001252
301.5,0.002016
302.0,0.001737
302.5,0.003317
303.0,0.005778
303.5,0.00713
304.0,0.006602
304.5,0.009476
305.0,0.0136
305.5,0.01505
306.0,0.01438
306.5,0.01752
307.0,0.02476
307.5,0.03142
308.0,0.03295
308.5,0.03804
309.0,0.0369
309.5,0.04091
310.0,0.0405
310.5,0.06513
311.0,0.08075
311.5,0.07754
312.0,0.07548
312.5,0.09021
313.0,0.09692
313.5,0.09495
314.0,0.1162
314.5,0.1001
315.0,0.1308
315.5,0.111
316.0,0.09466
316.5,0.1332
317.0,0.1654
317.5,0.1731
318.0,0.1332
318.5,0.161
319.0,0.1884
319.5,0.157
320.0,0.1903
320.5,0.2317
321.0,0.2012
321.5,0.1925
322.0,0.2107
322.5,0.183
323.0,0.1791
323.5,0.2165
324.0,0.252
324.5,0.2577
325.0,0.2247
325.5,0.2849
326.0,0.3468
326.5,0.3441
327.0,0.3441
327.5,0.3338
328.0,0.301
328.5,0.3116
329.0,0.3685
329.5,0.4168
330.0,0.4217
330.5,0.3407
331.0,0.3482
331.5,0.3514
332.0,0.3758
332.5,0.3701
333.0,0.37
333.5,0.3373
334.0,0.346
334.5,0.3959
335.0,0.3702
335.5,0.4323
336.0,0.2991
336.5,0.3511
337.0,0.2891
337.5,0.36
338.0,0.3491
338.5,0.4028
339.0,0.3986
339.5,0.3835
340.0,0.4507
340.5,0.406
341.0,0.396
341.5,0.3635
342.0,0.4344
342.5,0.4064
343.0,0.447
343.5,0.421
344.0,0.3111
344.5,0.3143
345.0,0.4157
345.5,0.4244
346.0,0.3606
346.5,0.4083
347.0,0.4384
347.5,0.3545
348.0,0.404
348.5,0.4038
349.0,0.3745
349.5,0.3709
350.0,0.4587
350.5,0.4838
351.0,0.4323
351.5,0.4202
352.0,0.4513
352.5,0.3521
353.0,0.4434
353.5,0.4742
354.0,0.4922
354.5,0.4992
355.0,0.4976
355.5,0.4495
356.0,0.4703
356.5,0.4016
357.0,0.3318
357.5,0.4062
358.0,0.3219
358.5,0.2751
359.0,0.3848
359.5,0.4905
360.0,0.52
360.5,0.4156
361.0,0.3789
361.5,0.4362
362.0,0.3772
362.5,0.522
363.0,0.4688
363.5,0.4318
364.0,0.5281
364.5,0.4514
365.0,0.4598
365.5,0.5771
366.0,0.6114
366.5,0.5745
367.0,0.5595
367.5,0.5806
368.0,0.5081
368.5,0.5128
369.0,0.5538
369.5,0.5903
370.0,0.6293
370.5,0.4884
371.0,0.5219
371.5,0.653
372.0,0.4334
372.5,0.5197
373.0,0.5286
373.5,0.344
374.0,0.4998
374.5,0.414
375.0,0.4024
375.5,0.6009
376.0,0.4981
376.5,0.5162
377.0,0.5466
377.5,0.6395
378.0,0.6933
378.5,0.6553
379.0,0.5408
379.5,0.4941
380.0,0.5137
380.5,0.6223
381.0,0.6236
381.5,0.4943
382.0,0.439
382.5,0.3743
383.0,0.3465
383.5,0.3338
384.0,0.3682
384.5,0.5416
385.0,0.5371
385.5,0.5002
386.0,0.4284
386.5,0.5628
387.0,0.4677
387.5,0.5254
388.0,0.4851
388.5,0.4795
389.0,0.5177
389.5,0.627
390.0,0.6293
390.5,0.5792
391.0,0.6818
391.5,0.6955
392.0,0.5858
392.5,0.5245
393.0,0.2918
393.5,0.2121
394.0,0.4317
394.5,0.5489
395.0,0.6699
395.5,0.6805
396.0,0.59
396.5,0.3449
397.0,0.2589
397.5,0.5265
398.0,0.7374
398.5,0.7622
399.0,0.8254
399.5,0.8227
400.0,0.8544
401.0,0.8677
402.0,0.9154
403.0,0.8697
404.0,0.8563
405.0,0.8563
406.0,0.8424
407.0,0.8288
408.0,0.8613
409.0,0.9219
410.0,0.8055
411.0,0.8725
412.0,0.9371
413.0,0.914
414.0,0.9252
415.0,0.9276
416.0,0.9438
417.0,0.9206
418.0,0.9037
419.0,0.9155
420.0,0.9115
421.0,0.9536
422.0,0.9064
423.0,0.8854
424.0,0.9366
425.0,0.9348
426.0,0.9105
427.0,0.8935
428.0,0.8704
429.0,0.8244
430.0,0.7214
431.0,0.7151
432.0,0.9233
433.0,0.9284
434.0,0.8621
435.0,0.9004
436.0,1.014
437.0,1.001
438.0,0.9111
439.0,0.9426
440.0,0.9725
441.0,1.008
442.0,1.081
443.0,1.053
444.0,1.075
445.0,1.052
446.0,1.004
447.0,1.085
448.0,1.102
449.0,1.106
450.0,1.137
451.0,1.18
452.0,1.136
453.0,1.069
454.0,1.116
455.0,1.122
456.0,1.149
457.0,1.168
458.0,1.129
459.0,1.123
460.0,1.126
461.0,1.152
462.0,1.16
463.0,1.152
464.0,1.133
465.0,1.118
466.0,1.129
467.0,1.109
468.0,1.122
469.0,1.128
470.0,1.092
471.0,1.09
472.0,1.149
473.0,1.134
474.0,1.136
475.0,1.146
476.0,1.112
477.0,1.115
478.0,1.146
479.0,1.139
480.0,1.141
481.0,1.162
482.0,1.168
483.0,1.153
484.0,1.129
485.0,1.076
486.0,0.9403
487.0,0.9853
488.0,1.081
489.0,1.084
490.0,1.141
491.0,1.121
492.0,1.059
493.0,1.093
494.0,1.104
495.0,1.113
496.0,1.12
497.0,1.138
498.0,1.084
499.0,1.098
500.0,1.067
501.0,1.047
502.0,1.033
503.0,1.075
504.0,1.049
505.0,1.086
506.0,1.121
507.0,1.067
508.0,1.033
509.0,1.062
510.0,1.056
511.0,1.084
512.0,1.096
513.0,1.037
514.0,1.03
515.0,1.019
516.0,1.017
517.0,0.9035
518.0,0.9499
519.0,0.9964
520.0,1.033
521.0,1.043
522.0,1.044
523.0,1.025
524.0,1.062
525.0,1.074
526.0,1.027
527.0,0.9675
528.0,1.023
529.0,1.079
530.0,1.064
531.0,1.079
532.0,1.042
533.0,1.012
534.0,1.042
535.0,1.064
536.0,1.074
537.0,1.031
538.0,1.05
539.0,1.041
540.0,0.9979
541.0,1.005
542.0,1.036
543.0,1.025
544.0,1.043
545.0,1.04
546.0,1.045
547.0,1.044
548.0,1.032
549.0,1.035
550.0,1.047
551.0,1.034
552.0,1.041
553.0,1.023
554.0,1.047
555.0,1.049
556.0,1.036
557.0,1.004
558.0,0.9963
559.0,0.9779
560.0,0.9902
561.0,1.003
562.0,0.9961
563.0,1.024
564.0,0.9958
565.0,0.9874
566.0,0.9731
567.0,0.9917
568.0,0.9834
569.0,0.9611
570.0,0.9607
571.0,0.9546
572.0,0.9783
573.0,0.9888
574.0,0.9858
575.0,0.9677
576.0,0.9588
577.0,0.9691
578.0,0.9543
579.0,0.9576
580.0,0.9751
581.0,0.9795
582.0,0.9976
583.0,0.9996
584.0,1.008
585.0,0.9832
586.0,0.963
587.0,0.9844
588.0,0.9618
589.0,0.8548
590.0,0.8937
591.0,0.9441
592.0,0.9331
593.0,0.9457
594.0,0.9397
595.0,0.9174
596.0,0.9514
597.0,0.9416
598.0,0.9386
599.0,0.9391
600.0,0.94
601.0,0.9319
602.0,0.9255
603.0,0.9406
604.0,0.9561
605.0,0.9511
606.0,0.9469
607.0,0.9561
608.0,0.9453
609.0,0.9468
610.0,0.9398
611.0,0.9446
612.0,0.9417
613.0,0.9297
614.0,0.9168
615.0,0.9366
616.0,0.9056
617.0,0.9037
618.0,0.9384
619.0,0.9288
620.0,0.9347
621.0,0.9358
622.0,0.925
623.0,0.9111
624.0,0.8953
625.0,0.8933
626.0,0.9065
627.0,0.9171
628.0,0.862
629.0,0.8973
630.0,0.8768
631.0,0.8948
632.0,0.8837
633.0,0.9098
634.0,0.9004
635.0,0.9141
636.0,0.9017
637.0,0.9162
638.0,0.9246
639.0,0.914
640.0,0.9049
641.0,0.9041
642.0,0.8998
643.0,0.9119
644.0,0.9087
645.0,0.9103
646.0,0.8897
647.0,0.8807
648.0,0.8816
649.0,0.8647
650.0,0.8669
651.0,0.9041
652.0,0.8686
653.0,0.8921
654.0,0.882
655.0,0.8502
656.0,0.7527
657.0,0.7729
658.0,0.8656
659.0,0.8716
660.0,0.8751
661.0,0.8812
662.0,0.8833
663.0,0.8657
664.0,0.8754
665.0,0.8757
666.0,0.8762
667.0,0.8752
668.0,0.8754
669.0,0.8888
670.0,0.8849
671.0,0.8846
672.0,0.8769
673.0,0.8901
674.0,0.8866
675.0,0.8785
676.0,0.8844
677.0,0.8756
678.0,0.878
679.0,0.8638
680.0,0.8706
681.0,0.8649
682.0,0.8638
683.0,0.8621
684.0,0.8578
685.0,0.8651
686.0,0.86
687.0,0.5946
688.0,0.6855
689.0,0.6876
690.0,0.7175
691.0,0.7509
692.0,0.7748
693.0,0.7688
694.0,0.7624
695.0,0.7911
696.0,0.7922
697.0,0.8371
698.0,0.8242
699.0,0.8068
700.0,0.7971
701.0,0.7898
702.0,0.7943
703.0,0.7958
704.0,0.8198
705.0,0.8211
706.0,0.8198
707.0,0.8202
708.0,0.822
709.0,0.8223
710.0,0.8227
711.0,0.8213
712.0,0.8185
713.0,0.8106
714.0,0.8135
715.0,0.7888
716.0,0.7894
717.0,0.6934
718.0,0.6382
719.0,0.5855
720.0,0.614
721.0,0.6724
722.0,0.7636
723.0,0.7138
724.0,0.6466
725.0,0.6374
726.0,0.6666
727.0,0.6741
728.0,0.6362
729.0,0.6569
730.0,0.6951
731.0,0.666
732.0,0.7091
733.0,0.7475
734.0,0.7644
735.0,0.749
736.0,0.748
737.0,0.7511
738.0,0.7605
739.0,0.7456
740.0,0.7644
741.0,0.7564
742.0,0.7567
743.0,0.7759
744.0,0.7734
745.0,0.7734
746.0,0.7769
747.0,0.7786
748.0,0.777
749.0,0.7681
750.0,0.7676
751.0,0.7598
752.0,0.763
753.0,0.7669
754.0,0.7686
755.0,0.7643
756.0,0.7639
757.0,0.765
758.0,0.7555
759.0,0.7414
760.0,0.1456
761.0,0.08089
762.0,0.4024
763.0,0.2142
764.0,0.3104
765.0,0.4025
766.0,0.4834
767.0,0.5993
768.0,0.683
769.0,0.6955
770.0,0.717
771.0,0.7219
772.0,0.7231
773.0,0.7281
774.0,0.7245
775.0,0.7189
776.0,0.7277
777.0,0.7181
778.0,0.7137
779.0,0.7143
780.0,0.7103
781.0,0.711
782.0,0.7154
783.0,0.7029
784.0,0.7063
785.0,0.7011
786.0,0.7089
787.0,0.6975
788.0,0.6892
789.0,0.689
790.0,0.672
791.0,0.6766
792.0,0.6714
793.0,0.6607
794.0,0.6706
795.0,0.6823
796.0,0.6631
797.0,0.664
798.0,0.6817
799.0,0.6777
800.0,0.6663
801.0,0.6646
802.0,0.6627
803.0,0.6579
804.0,0.6586
805.0,0.656
806.0,0.6736
807.0,0.6656
808.0,0.6662
809.0,0.6543
810.0,0.6494
811.0,0.6511
812.0,0.6337
813.0,0.6212
814.0,0.5506
815.0,0.5471
816.0,0.5097
817.0,0.5186
818.0,0.5001
819.0,0.5556
820.0,0.5246
821.0,0.6084
822.0,0.5918
823.0,0.4101
824.0,0.5762
825.0,0.598
826.0,0.5768
827.0,0.6071
828.0,0.5191
829.0,0.573
830.0,0.5659
831.0,0.5678
832.0,0.5511
833.0,0.5842
834.0,0.5649
835.0,0.6175
836.0,0.593
837.0,0.6192
838.0,0.6007
839.0,0.6096
840.0,0.6228
841.0,0.6143
842.0,0.615
843.0,0.6141
844.0,0.6059
845.0,0.6259
846.0,0.6231
847.0,0.6113
848.0,0.6078
849.0,0.5905
850.0,0.5657
851.0,0.5992
852.0,0.5949
853.0,0.5724
854.0,0.4944
855.0,0.543
856.0,0.5935
857.0,0.6065
858.0,0.6021
859.0,0.6026
860.0,0.6036
861.0,0.6003
862.0,0.6097
863.0,0.6241
864.0,0.5929
865.0,0.5877
866.0,0.5284
867.0,0.5514
868.0,0.6
869.0,0.5876
870.0,0.6043
871.0,0.5961
872.0,0.594
873.0,0.5928
874.0,0.5857
875.0,0.5739
876.0,0.5799
877.0,0.5857
878.0,0.5921
879.0,0.583
880.0,0.5705
881.0,0.562
882.0,0.5742
883.0,0.5759
884.0,0.5733
885.0,0.5777
886.0,0.5509
887.0,0.5565
888.0,0.5648
889.0,0.571
890.0,0.5666
891.0,0.5654
892.0,0.5496
893.0,0.5329
894.0,0.5153
895.0,0.4884
896.0,0.4606
897.0,0.3976
898.0,0.4328
899.0,0.3314
900.0,0.442
901.0,0.3473
902.0,0.4046
903.0,0.4096
904.0,0.5114
905.0,0.4944
906.0,0.4632
907.0,0.3791
908.0,0.3862
909.0,0.4171
910.0,0.3712
911.0,0.3942
912.0,0.4116
913.0,0.3768
914.0,0.3732
915.0,0.4044
916.0,0.3429
917.0,0.4328
918.0,0.3517
919.0,0.44
920.0,0.4433
921.0,0.4608
922.0,0.4136
923.0,0.445
924.0,0.424
925.0,0.4148
926.0,0.4194
927.0,0.468
928.0,0.3476
929.0,0.3184
930.0,0.2519
931.0,0.2384
932.0,0.1733
933.0,0.1417
934.0,0.07944
935.0,0.1443
936.0,0.09119
937.0,0.09255
938.0,0.1134
939.0,0.231
940.0,0.2767
941.0,0.2103
942.0,0.2427
943.0,0.1607
944.0,0.1682
945.0,0.2166
946.0,0.1117
947.0,0.218
948.0,0.1603
949.0,0.2904
950.0,0.08287
951.0,0.2857
952.0,0.1553
953.0,0.1994
954.0,0.2431
955.0,0.2015
956.0,0.1949
957.0,0.1558
958.0,0.2743
959.0,0.2194
960.0,0.2459
961.0,0.2748
962.0,0.2601
963.0,0.2989
964.0,0.2742
965.0,0.2977
966.0,0.298
967.0,0.2968
968.0,0.3945
969.0,0.4124
970.0,0.3792
971.0,0.4325
972.0,0.414
973.0,0.362
974.0,0.3438
975.0,0.3563
976.0,0.3391
977.0,0.3843
978.0,0.3658
979.0,0.3826
980.0,0.36
981.0,0.43
982.0,0.4117
983.0,0.3955
984.0,0.4424
985.0,0.4101
986.0,0.4498
987.0,0.4414
988.0,0.4406
989.0,0.4482
990.0,0.4379
991.0,0.4496
992.0,0.4522
993.0,0.4425
994.0,0.452
995.0,0.4514
996.0,0.4494
997.0,0.45
998.0,0.4479
999.0,0.4463
1000.0,0.4432
1001.0,0.4487
1002.0,0.4367
1003.0,0.4408
1004.0,0.4301
1005.0,0.4142
1006.0,0.4304
1007.0,0.4395
1008.0,0.4372
1009.0,0.4349
1010.0,0.4331
1011.0,0.4373
1012.0,0.4336
1013.0,0.4362
1014.0,0.4331
1015.0,0.4303
1016.0,0.4284
1017.0,0.4295
1018.0,0.4278
1019.0,0.4188
1020.0,0.4256
1021.0,0.425
1022.0,0.4217
1023.0,0.4262
1024.0,0.4208
1025.0,0.4259
1026.0,0.4241
1027.0,0.4231
1028.0,0.4222
1029.0,0.4172
1030.0,0.42
1031.0,0.4184
1032.0,0.4171
1033.0,0.4109
1034.0,0.4109
1035.0,0.4122
1036.0,0.4143
1037.0,0.4076
1038.0,0.4094
1039.0,0.4092
1040.0,0.4075
1041.0,0.4091
1042.0,0.4063
1043.0,0.405
1044.0,0.4064
1045.0,0.4009
1046.0,0.3965
1047.0,0.4001
1048.0,0.4023
1049.0,0.4008
1050.0,0.399
1051.0,0.3985
1052.0,0.3969
1053.0,0.3937
1054.0,0.3946
1055.0,0.3948
1056.0,0.3935
1057.0,0.3923
1058.0,0.3826
1059.0,0.3831
1060.0,0.3825
1061.0,0.3821
1062.0,0.3841
1063.0,0.3803
1064.0,0.3848
1065.0,0.3821
1066.0,0.3745
1067.0,0.3793
1068.0,0.3711
1069.0,0.3596
1070.0,0.3718
1071.0,0.3775
1072.0,0.3732
1073.0,0.3678
1074.0,0.3772
1075.0,0.3587
1076.0,0.3769
1077.0,0.3704
1078.0,0.3635
1079.0,0.3708
1080.0,0.3647
1081.0,0.3532
1082.0,0.3585
1083.0,0.3596
1084.0,0.3524
1085.0,0.3655
1086.0,0.3341
1087.0,0.3444
1088.0,0.3592
1089.0,0.3486
1090.0,0.3411
1091.0,0.3582
1092.0,0.3572
1093.0,0.3039
1094.0,0.3269
1095.0,0.3165
1096.0,0.3034
1097.0,0.3489
1098.0,0.2987
1099.0,0.3115
1100.0,0.29
1101.0,0.2935
1102.0,0.2806
1103.0,0.2781
1104.0,0.2784
1105.0,0.3044
1106.0,0.2347
1107.0,0.2895
1108.0,0.2465
1109.0,0.2467
1110.0,0.2871
1111.0,0.1962
1112.0,0.2447
1113.0,0.1573
1114.0,0.1756
1115.0,0.1456
1116.0,0.1171
1117.0,0.04393
1118.0,0.1271
1119.0,0.0638
1120.0,0.08036
1121.0,0.1062
1122.0,0.0453
1123.0,0.07259
1124.0,0.06128
1125.0,0.07977
1126.0,0.02836
1127.0,0.08993
1128.0,0.05444
1129.0,0.05767
1130.0,0.03819
1131.0,0.169
1132.0,0.1329
1133.0,0.08503
1134.0,0.02219
1135.0,0.008292
1136.0,0.07122
1137.0,0.1663
1138.0,0.1173
1139.0,0.1734
1140.0,0.1455
1141.0,0.1115
1142.0,0.1279
1143.0,0.181
1144.0,0.064
1145.0,0.08199
1146.0,0.08844
1147.0,0.03171
1148.0,0.1567
1149.0,0.1256
1150.0,0.06877
1151.0,0.1164
1152.0,0.1427
1153.0,0.1386
1154.0,0.07956
1155.0,0.1809
1156.0,0.1632
1157.0,0.1826
1158.0,0.1806
1159.0,0.1943
1160.0,0.1666
1161.0,0.2042
1162.0,0.2053
1163.0,0.275
1164.0,0.2367
1165.0,0.2241
1166.0,0.222
1167.0,0.2414
1168.0,0.2442
1169.0,0.2497
1170.0,0.2707
1171.0,0.264
1172.0,0.2683
1173.0,0.2701
1174.0,0.195
1175.0,0.2635
1176.0,0.2885
1177.0,0.2777
1178.0,0.2102
1179.0,0.2908
1180.0,0.2608
1181.0,0.2691
1182.0,0.1875
1183.0,0.2647
1184.0,0.2487
1185.0,0.2405
1186.0,0.2832
1187.0,0.2704
1188.0,0.1909
1189.0,0.252
1190.0,0.2768
1191.0,0.2639
1192.0,0.2805
1193.0,0.2692
1194.0,0.2772
1195.0,0.2629
1196.0,0.2537
1197.0,0.2769
1198.0,0.2539
1199.0,0.2178
1200.0,0.2659
1201.0,0.257
1202.0,0.2552
1203.0,0.2531
1204.0,0.2223
1205.0,0.2606
1206.0,0.2868
1207.0,0.2547
1208.0,0.2501
1209.0,0.2552
1210.0,0.2654
1211.0,0.2534
1212.0,0.2512
1213.0,0.2778
1214.0,0.2569
1215.0,0.2522
1216.0,0.2769
1217.0,0.2699
1218.0,0.2747
1219.0,0.2715
1220.0,0.2749
1221.0,0.2774
1222.0,0.2704
1223.0,0.2681
1224.0,0.2667
1225.0,0.2757
1226.0,0.2773
1227.0,0.2568
1228.0,0.2785
1229.0,0.2773
1230.0,0.2728
1231.0,0.2799
1232.0,0.2783
1233.0,0.2695
1234.0,0.2795
1235.0,0.2778
1236.0,0.2798
1237.0,0.2762
1238.0,0.2788
1239.0,0.2752
1240.0,0.2763
1241.0,0.2751
1242.0,0.2744
1243.0,0.2721
1244.0,0.2741
1245.0,0.2753
1246.0,0.2736
1247.0,0.2726
1248.0,0.2726
1249.0,0.2733
1250.0,0.2717
1251.0,0.2684
1252.0,0.2682
1253.0,0.2664
1254.0,0.2639
1255.0,0.268
1256.0,0.261
1257.0,0.2597
1258.0,0.2641
1259.0,0.2554
1260.0,0.2566
1261.0,0.2432
1262.0,0.2364
1263.0,0.2369
1264.0,0.2198
1265.0,0.2353
1266.0,0.2271
1267.0,0.2307
1268.0,0.2195
1269.0,0.1413
1270.0,0.23
1271.0,0.2422
1272.0,0.2429
1273.0,0.2404
1274.0,0.2411
1275.0,0.2444
1276.0,0.2466
1277.0,0.248
1278.0,0.2523
1279.0,0.2501
1280.0,0.2469
1281.0,0.2354
1282.0,0.2265
1283.0,0.244
1284.0,0.2499
1285.0,0.2515
1286.0,0.2548
1287.0,0.2511
1288.0,0.251
1289.0,0.2437
1290.0,0.2487
1291.0,0.2521
1292.0,0.238
1293.0,0.2475
1294.0,0.2458
1295.0,0.2449
1296.0,0.2345
1297.0,0.2224
1298.0,0.2383
1299.0,0.2477
1300.0,0.2116
1301.0,0.2177
1302.0,0.2375
1303.0,0.2086
1304.0,0.1797
1305.0,0.2327
1306.0,0.2329
1307.0,0.183
1308.0,0.2086
1309.0,0.2312
1310.0,0.1796
1311.0,0.2004
1312.0,0.1953
1313.0,0.1918
1314.0,0.1723
1315.0,0.1705
1316.0,0.1976
1317.0,0.1873
1318.0,0.2029
1319.0,0.1606
1320.0,0.1552
1321.0,0.1801
1322.0,0.1822
1323.0,0.1387
1324.0,0.1575
1325.0,0.1948
1326.0,0.1683
1327.0,0.1607
1328.0,0.1391
1329.0,0.1058
1330.0,0.1371
1331.0,0.0842
1332.0,0.08645
1333.0,0.12
1334.0,0.1009
1335.0,0.1382
1336.0,0.11
1337.0,0.09769
1338.0,0.1057
1339.0,0.105
1340.0,0.1018
1341.0,0.1002
1342.0,0.1052
1343.0,0.07298
1344.0,0.04361
1345.0,0.06278
1346.0,0.03227
1347.0,0.033
1348.0,0.00234
1349.0,0.008196
1350.0,0.008361
1351.0,0.002202
1352.0,0.0006494
1353.0,3.655e-05
1354.0,0.0001183
1355.0,1.167e-06
1356.0,1.799e-05
1357.0,2.734e-05
1358.0,1.371e-06
1359.0,2.012e-07
1360.0,6.623e-07
1361.0,1.022e-09
1362.0,3.221e-12
1363.0,9.377e-07
1364.0,3.923e-07
1365.0,1.348e-12
1366.0,3.938e-06
1367.0,1.574e-06
1368.0,1.476e-14
1369.0,1.48e-07
1370.0,7.783e-08
1371.0,4.789e-09
1372.0,8.659e-07
1373.0,1.579e-05
1374.0,6.847e-05
1375.0,0.0001248
1376.0,0.0001061
1377.0,4.937e-05
1378.0,0.0004685
1379.0,2.081e-05
1380.0,3.128e-05
1381.0,8.538e-07
1382.0,7.953e-07
1383.0,1.266e-08
1384.0,1.717e-07
1385.0,7.008e-07
1386.0,7.409e-07
1387.0,7.405e-05
1388.0,1.469e-06
1389.0,0.000233
1390.0,0.0002007
1391.0,0.000136
1392.0,9.066e-06
1393.0,4.634e-05
1394.0,2.677e-05
1395.0,2.139e-07
1396.0,1.411e-09
1397.0,1.899e-05
1398.0,0.0005301
1399.0,0.0003359
1400.0,6.635e-10
1401.0,2.463e-09
1402.0,0.0008535
1403.0,0.001091
1404.0,0.0003351
1405.0,1.1e-07
1406.0,0.0008972
1407.0,7.779e-05
1408.0,0.0007304
1409.0,0.0002577
1410.0,0.0002001
1411.0,0.0009565
1412.0,0.001261
1413.0,0.01218
1414.0,0.0001569
1415.0,7.712e-05
1416.0,0.0194
1417.0,0.006037
1418.0,0.0069
1419.0,0.001078
1420.0,0.004228
1421.0,0.004574
1422.0,0.02528
1423.0,0.004939
1424.0,0.009221
1425.0,0.01363
1426.0,0.01533
1427.0,0.0279
1428.0,0.002213
1429.0,0.02099
1430.0,0.03547
1431.0,0.03889
1432.0,0.001746
1433.0,0.02483
1434.0,0.01267
1435.0,0.0128
1436.0,0.0245
1437.0,0.01877
1438.0,0.007983
1439.0,0.03323
1440.0,0.0249
1441.0,0.01906
1442.0,0.02113
1443.0,0.02642
1444.0,0.03656
1445.0,0.02868
1446.0,0.01292
1447.0,0.02036
