interpolation:linear
wavelength,value
280.0,5.588e-20
280.5,1.554e-18
281.0,7.888e-18
281.5,4.705e-19
282.0,2.104e-18
282.5,5.999e-18
283.0,2.006e-17
283.5,3.314e-17
284.0,5.22e-16
284.5,1.471e-15
285.0,2.983e-15
285.5,1.866e-14
286.0,8.014e-14
286.5,3.919e-13
287.0,1.175e-12
287.5,4.709e-12
288.0,1.385e-11
288.5,5.522e-11
289.0,1.865e-10
289.5,7.053e-10
290.0,2.322e-09
290.5,5.437e-09
291.0,1.365e-08
291.5,4.73e-08
292.0,1.262e-07
292.5,1.982e-07
293.0,4.901e-07
293.5,1.454e-06
294.0,2.644e-06
294.5,3.44e-06
295.0,6.684e-06
295.5,1.596e-05
296.0,3.021e-05
296.5,4.142e-05
297.0,5.511e-05
297.5,0.0001439
298.0,0.0002216
298.5,0.0002188
299.0,0.0004737
299.5,0.0007599
300.0,0.0008203
300.5,0.001165
301.0,0.002039
301.5,0.003153
302.0,0.002657
302.5,0.005
303.0,0.008552
303.5,0.01044
304.0,0.009593
304.5,0.01352
305.0,0.01893
305.5,0.02063
306.0,0.01959
306.5,0.02363
307.0,0.03273
307.5,0.04076
308.0,0.0426
308.5,0.04874
309.0,0.04692
309.5,0.05137
310.0,0.05055
310.5,0.08102
311.0,0.09996
311.5,0.09576
312.0,0.09222
312.5,0.1094
313.0,0.1171
313.5,0.1151
314.0,0.1396
314.5,0.1189
315.0,0.1551
315.5,0.1323
316.0,0.1118
316.5,0.1561
317.0,0.1939
317.5,0.2034
318.0,0.1556
318.5,0.1862
319.0,0.2168
319.5,0.1821
320.0,0.221
320.5,0.2663
321.0,0.2292
321.5,0.219
322.0,0.242
322.5,0.2101
323.0,0.2043
323.5,0.2454
324.0,0.2853
324.5,0.2925
325.0,0.2559
325.5,0.3228
326.0,0.3922
326.5,0.3878
327.0,0.3882
327.5,0.3772
328.0,0.3415
328.5,0.3516
329.0,0.4142
329.5,0.4678
330.0,0.4737
330.5,0.3838
331.0,0.3927
331.5,0.3953
332.0,0.4213
332.5,0.4142
333.0,0.4144
333.5,0.3788
334.0,0.3886
334.5,0.4433
335.0,0.4138
335.5,0.4833
336.0,0.3344
336.5,0.3927
337.0,0.3237
337.5,0.4032
338.0,0.39
338.5,0.45
339.0,0.4453
339.5,0.4283
340.0,0.5034
340.5,0.4533
341.0,0.4422
341.5,0.4058
342.0,0.4848
342.5,0.4535
343.0,0.4988
343.5,0.4697
344.0,0.347
344.5,0.3506
345.0,0.4637
345.5,0.4732
346.0,0.4021
346.5,0.4552
347.0,0.4887
347.5,0.3951
348.0,0.4503
348.5,0.4499
349.0,0.4173
349.5,0.4131
350.0,0.5109
350.5,0.5388
351.0,0.4814
351.5,0.468
352.0,0.5025
352.5,0.392
353.0,0.4936
353.5,0.5277
354.0,0.5478
354.5,0.5555
355.0,0.5537
355.5,0.5001
356.0,0.5231
356.5,0.4467
357.0,0.3691
357.5,0.4518
358.0,0.358
358.5,0.3059
359.0,0.4279
359.5,0.5454
360.0,0.5781
360.5,0.462
361.0,0.4211
361.5,0.4848
362.0,0.4191
362.5,0.5799
363.0,0.5208
363.5,0.4796
364.0,0.5865
364.5,0.5013
365.0,0.5105
365.5,0.6407
366.0,0.6787
366.5,0.6376
367.0,0.6209
367.5,0.6443
368.0,0.5638
368.5,0.5689
369.0,0.6143
369.5,0.6547
370.0,0.6979
370.5,0.5416
371.0,0.5787
371.5,0.724
372.0,0.4805
372.5,0.5761
373.0,0.586
373.5,0.3812
374.0,0.5539
374.5,0.4587
375.0,0.4459
375.5,0.6657
376.0,0.5519
376.5,0.5719
377.0,0.6055
377.5,0.7083
378.0,0.7679
378.5,0.7258
379.0,0.599
379.5,0.5472
380.0,0.5689
380.5,0.689
381.0,0.6904
381.5,0.5472
382.0,0.4859
382.5,0.4142
383.0,0.3834
383.5,0.3693
384.0,0.4073
384.5,0.5991
385.0,0.5941
385.5,0.5533
386.0,0.4738
386.5,0.6224
387.0,0.5172
387.5,0.5809
388.0,0.5363
388.5,0.5301
389.0,0.5722
389.5,0.6931
390.0,0.6955
390.5,0.6401
391.0,0.7534
391.5,0.7685
392.0,0.6473
392.5,0.5794
393.0,0.3224
393.5,0.2343
394.0,0.4769
394.5,0.6063
395.0,0.7398
395.5,0.7515
396.0,0.6516
396.5,0.3808
397.0,0.2858
397.5,0.5812
398.0,0.814
398.5,0.8414
399.0,0.9109
399.5,0.9079
400.0,0.9429
401.0,0.9582
402.0,1.011
403.0,0.96
404.0,0.9452
405.0,0.945
406.0,0.9295
407.0,0.9144
408.0,0.9501
409.0,1.017
410.0,0.8884
411.0,0.9621
412.0,1.033
413.0,1.008
414.0,1.02
415.0,1.022
416.0,1.04
417.0,1.014
418.0,0.9955
419.0,1.008
420.0,1.004
421.0,1.05
422.0,0.9981
423.0,0.9749
424.0,1.031
425.0,1.029
426.0,1.002
427.0,0.9833
428.0,0.9578
429.0,0.907
430.0,0.7936
431.0,0.7867
432.0,1.015
433.0,1.021
434.0,0.948
435.0,0.9901
436.0,1.115
437.0,1.1
438.0,1.001
439.0,1.036
440.0,1.069
441.0,1.107
442.0,1.188
443.0,1.157
444.0,1.182
445.0,1.156
446.0,1.103
447.0,1.192
448.0,1.211
449.0,1.215
450.0,1.249
451.0,1.295
452.0,1.248
453.0,1.173
454.0,1.224
455.0,1.232
456.0,1.261
457.0,1.282
458.0,1.239
459.0,1.232
460.0,1.235
461.0,1.264
462.0,1.273
463.0,1.264
464.0,1.243
465.0,1.227
466.0,1.238
467.0,1.216
468.0,1.23
469.0,1.237
470.0,1.197
471.0,1.196
472.0,1.26
473.0,1.244
474.0,1.246
475.0,1.257
476.0,1.22
477.0,1.224
478.0,1.257
479.0,1.249
480.0,1.251
481.0,1.274
482.0,1.28
483.0,1.264
484.0,1.238
485.0,1.179
486.0,1.031
487.0,1.08
488.0,1.185
489.0,1.188
490.0,1.25
491.0,1.228
492.0,1.16
493.0,1.198
494.0,1.21
495.0,1.22
496.0,1.227
497.0,1.246
498.0,1.188
499.0,1.203
500.0,1.169
501.0,1.148
502.0,1.132
503.0,1.179
504.0,1.151
505.0,1.19
506.0,1.229
507.0,1.169
508.0,1.132
509.0,1.164
510.0,1.157
511.0,1.188
512.0,1.2
513.0,1.136
514.0,1.128
515.0,1.117
516.0,1.114
517.0,0.9897
518.0,1.041
519.0,1.091
520.0,1.131
521.0,1.142
522.0,1.143
523.0,1.123
524.0,1.163
525.0,1.177
526.0,1.125
527.0,1.06
528.0,1.122
529.0,1.183
530.0,1.166
531.0,1.183
532.0,1.143
533.0,1.109
534.0,1.142
535.0,1.167
536.0,1.177
537.0,1.131
538.0,1.15
539.0,1.141
540.0,1.094
541.0,1.102
542.0,1.136
543.0,1.124
544.0,1.144
545.0,1.14
546.0,1.146
547.0,1.145
548.0,1.131
549.0,1.134
550.0,1.148
551.0,1.134
552.0,1.142
553.0,1.121
554.0,1.148
555.0,1.15
556.0,1.136
557.0,1.101
558.0,1.093
559.0,1.072
560.0,1.086
561.0,1.1
562.0,1.093
563.0,1.123
564.0,1.093
565.0,1.084
566.0,1.068
567.0,1.089
568.0,1.08
569.0,1.056
570.0,1.056
571.0,1.049
572.0,1.075
573.0,1.087
574.0,1.084
575.0,1.064
576.0,1.054
577.0,1.066
578.0,1.049
579.0,1.052
580.0,1.071
581.0,1.075
582.0,1.095
583.0,1.097
584.0,1.106
585.0,1.078
586.0,1.056
587.0,1.08
588.0,1.056
589.0,0.9406
590.0,0.9833
591.0,1.038
592.0,1.026
593.0,1.039
594.0,1.033
595.0,1.009
596.0,1.045
597.0,1.035
598.0,1.031
599.0,1.031
600.0,1.032
601.0,1.022
602.0,1.015
603.0,1.032
604.0,1.049
605.0,1.043
606.0,1.038
607.0,1.048
608.0,1.036
609.0,1.038
610.0,1.03
611.0,1.035
612.0,1.032
613.0,1.019
614.0,1.004
615.0,1.026
616.0,0.9919
617.0,0.9897
618.0,1.028
619.0,1.017
620.0,1.024
621.0,1.025
622.0,1.013
623.0,0.998
624.0,0.9806
625.0,0.9784
626.0,0.993
627.0,1.005
628.0,0.9488
629.0,0.9847
630.0,0.9623
631.0,0.9806
632.0,0.9682
633.0,0.9963
634.0,0.9854
635.0,1.0
636.0,0.9863
637.0,1.002
638.0,1.011
639.0,0.9992
640.0,0.989
641.0,0.9881
642.0,0.9832
643.0,0.9964
644.0,0.9927
645.0,0.9946
646.0,0.9726
647.0,0.9638
648.0,0.965
649.0,0.9465
650.0,0.9475
651.0,0.9879
652.0,0.9507
653.0,0.9747
654.0,0.9634
655.0,0.9295
656.0,0.8224
657.0,0.8444
658.0,0.9452
659.0,0.9515
660.0,0.9552
661.0,0.9619
662.0,0.9645
663.0,0.9452
664.0,0.9554
665.0,0.9554
666.0,0.9558
667.0,0.9545
668.0,0.9545
669.0,0.9691
670.0,0.9647
671.0,0.9643
672.0,0.9559
673.0,0.9702
674.0,0.9664
675.0,0.9574
676.0,0.9639
677.0,0.9542
678.0,0.9567
679.0,0.9412
680.0,0.9486
681.0,0.9423
682.0,0.9411
683.0,0.9393
684.0,0.9346
685.0,0.9425
686.0,0.937
687.0,0.6669
688.0,0.76
689.0,0.762
690.0,0.7921
691.0,0.8256
692.0,0.8493
693.0,0.843
694.0,0.8361
695.0,0.8652
696.0,0.8664
697.0,0.9126
698.0,0.8986
699.0,0.8815
700.0,0.871
701.0,0.8635
702.0,0.8679
703.0,0.8694
704.0,0.8946
705.0,0.8959
706.0,0.8941
707.0,0.8943
708.0,0.8964
709.0,0.896
710.0,0.8968
711.0,0.895
712.0,0.8916
713.0,0.8833
714.0,0.8865
715.0,0.8602
716.0,0.8611
717.0,0.7633
718.0,0.7039
719.0,0.6466
720.0,0.6784
721.0,0.7387
722.0,0.834
723.0,0.7822
724.0,0.7113
725.0,0.7022
726.0,0.7339
727.0,0.7405
728.0,0.7012
729.0,0.7215
730.0,0.7633
731.0,0.7322
732.0,0.777
733.0,0.8164
734.0,0.8342
735.0,0.8178
736.0,0.8167
737.0,0.8201
738.0,0.8288
739.0,0.8125
740.0,0.8325
741.0,0.8235
742.0,0.8235
743.0,0.8443
744.0,0.8414
745.0,0.8412
746.0,0.8451
747.0,0.8469
748.0,0.8451
749.0,0.8354
750.0,0.8348
751.0,0.8264
752.0,0.8299
753.0,0.834
754.0,0.8359
755.0,0.8312
756.0,0.8308
757.0,0.832
758.0,0.8217
759.0,0.8073
760.0,0.1797
761.0,0.1045
762.0,0.4586
763.0,0.2566
764.0,0.3612
765.0,0.4588
766.0,0.5415
767.0,0.6619
768.0,0.7472
769.0,0.7592
770.0,0.7808
771.0,0.7853
772.0,0.7864
773.0,0.7917
774.0,0.7878
775.0,0.7817
776.0,0.7912
777.0,0.7807
778.0,0.776
779.0,0.7766
780.0,0.7722
781.0,0.773
782.0,0.7778
783.0,0.7642
784.0,0.7678
785.0,0.7623
786.0,0.7708
787.0,0.7591
788.0,0.7505
789.0,0.7504
790.0,0.733
791.0,0.7369
792.0,0.7311
793.0,0.7196
794.0,0.7292
795.0,0.7422
796.0,0.7229
797.0,0.7239
798.0,0.7417
799.0,0.7376
800.0,0.7256
801.0,0.7241
802.0,0.722
803.0,0.7169
804.0,0.7175
805.0,0.7143
806.0,0.7327
807.0,0.7242
808.0,0.7247
809.0,0.7123
810.0,0.7074
811.0,0.71
812.0,0.692
813.0,0.6791
814.0,0.6056
815.0,0.6016
816.0,0.5611
817.0,0.5703
818.0,0.5508
819.0,0.6087
820.0,0.5761
821.0,0.6637
822.0,0.6463
823.0,0.455
824.0,0.6308
825.0,0.6526
826.0,0.6308
827.0,0.6626
828.0,0.5705
829.0,0.6263
830.0,0.6191
831.0,0.6209
832.0,0.6035
833.0,0.6376
834.0,0.6179
835.0,0.6726
836.0,0.6477
837.0,0.6743
838.0,0.655
839.0,0.6637
840.0,0.6778
841.0,0.6689
842.0,0.6692
843.0,0.6677
844.0,0.659
845.0,0.6804
846.0,0.6773
847.0,0.6643
848.0,0.6607
849.0,0.6419
850.0,0.6149
851.0,0.6516
852.0,0.6468
853.0,0.6222
854.0,0.5375
855.0,0.5901
856.0,0.6451
857.0,0.6591
858.0,0.6544
859.0,0.6548
860.0,0.6558
861.0,0.6522
862.0,0.6624
863.0,0.678
864.0,0.6441
865.0,0.6385
866.0,0.5741
867.0,0.5991
868.0,0.6519
869.0,0.6383
870.0,0.6565
871.0,0.6476
872.0,0.6453
873.0,0.644
874.0,0.6363
875.0,0.6234
876.0,0.63
877.0,0.6363
878.0,0.6433
879.0,0.6334
880.0,0.6198
881.0,0.6107
882.0,0.624
883.0,0.6257
884.0,0.623
885.0,0.6277
886.0,0.599
887.0,0.6048
888.0,0.6141
889.0,0.6203
890.0,0.616
891.0,0.6145
892.0,0.5979
893.0,0.5805
894.0,0.5627
895.0,0.5351
896.0,0.5055
897.0,0.4388
898.0,0.4762
899.0,0.3677
900.0,0.4848
901.0,0.3852
902.0,0.4448
903.0,0.4515
904.0,0.5585
905.0,0.5407
906.0,0.5072
907.0,0.4188
908.0,0.4262
909.0,0.4585
910.0,0.4112
911.0,0.4348
912.0,0.4532
913.0,0.4175
914.0,0.413
915.0,0.4472
916.0,0.3802
917.0,0.4763
918.0,0.39
919.0,0.4834
920.0,0.4854
921.0,0.5042
922.0,0.4548
923.0,0.4868
924.0,0.4664
925.0,0.4564
926.0,0.4614
927.0,0.5126
928.0,0.3871
929.0,0.3564
930.0,0.2847
931.0,0.269
932.0,0.1984
933.0,0.1638
934.0,0.09516
935.0,0.1655
936.0,0.1067
937.0,0.1086
938.0,0.1322
939.0,0.2606
940.0,0.3103
941.0,0.2386
942.0,0.2735
943.0,0.1833
944.0,0.1899
945.0,0.2452
946.0,0.1294
947.0,0.2475
948.0,0.1825
949.0,0.3267
950.0,0.09794
951.0,0.3209
952.0,0.1785
953.0,0.2265
954.0,0.2734
955.0,0.2286
956.0,0.2197
957.0,0.1793
958.0,0.3052
959.0,0.2472
960.0,0.2769
961.0,0.3072
962.0,0.2911
963.0,0.3325
964.0,0.3056
965.0,0.3309
966.0,0.3317
967.0,0.3306
968.0,0.4323
969.0,0.4524
970.0,0.417
971.0,0.4726
972.0,0.4529
973.0,0.3991
974.0,0.3795
975.0,0.3921
976.0,0.3748
977.0,0.4216
978.0,0.4026
979.0,0.4201
980.0,0.396
981.0,0.4696
982.0,0.4507
983.0,0.4337
984.0,0.4819
985.0,0.449
986.0,0.4892
987.0,0.481
988.0,0.48
989.0,0.487
990.0,0.4771
991.0,0.4886
992.0,0.4913
993.0,0.4816
994.0,0.491
995.0,0.4903
996.0,0.4883
997.0,0.4889
998.0,0.4867
999.0,0.4848
1000.0,0.4817
1001.0,0.4874
1002.0,0.4752
1003.0,0.4789
1004.0,0.4675
1005.0,0.4499
1006.0,0.4677
1007.0,0.4775
1008.0,0.4751
1009.0,0.4728
1010.0,0.4709
1011.0,0.475
1012.0,0.4712
1013.0,0.4738
1014.0,0.4705
1015.0,0.4674
1016.0,0.4653
1017.0,0.4666
1018.0,0.4647
1019.0,0.4552
1020.0,0.4623
1021.0,0.4616
1022.0,0.4582
1023.0,0.463
1024.0,0.4575
1025.0,0.4626
1026.0,0.4607
1027.0,0.4596
1028.0,0.4587
1029.0,0.4533
1030.0,0.4563
1031.0,0.4545
1032.0,0.4531
1033.0,0.4463
1034.0,0.4463
1035.0,0.4477
1036.0,0.4501
1037.0,0.4427
1038.0,0.4447
1039.0,0.4445
1040.0,0.4427
1041.0,0.4445
1042.0,0.4414
1043.0,0.44
1044.0,0.4416
1045.0,0.4356
1046.0,0.4309
1047.0,0.4348
1048.0,0.4372
1049.0,0.4356
1050.0,0.4337
1051.0,0.4331
1052.0,0.4314
1053.0,0.428
1054.0,0.429
1055.0,0.4293
1056.0,0.4279
1057.0,0.4266
1058.0,0.4162
1059.0,0.4167
1060.0,0.4161
1061.0,0.4156
1062.0,0.4179
1063.0,0.4138
1064.0,0.4187
1065.0,0.4159
1066.0,0.4075
1067.0,0.4128
1068.0,0.4039
1069.0,0.3913
1070.0,0.4048
1071.0,0.4106
1072.0,0.4062
1073.0,0.4003
1074.0,0.4102
1075.0,0.3909
1076.0,0.4099
1077.0,0.4033
1078.0,0.3959
1079.0,0.4032
1080.0,0.3971
1081.0,0.385
1082.0,0.3901
1083.0,0.391
1084.0,0.3843
1085.0,0.3979
1086.0,0.365
1087.0,0.3753
1088.0,0.3908
1089.0,0.38
1090.0,0.3725
1091.0,0.3899
1092.0,0.3886
1093.0,0.3331
1094.0,0.356
1095.0,0.3465
1096.0,0.3329
1097.0,0.3796
1098.0,0.3281
1099.0,0.3417
1100.0,0.3192
1101.0,0.3227
1102.0,0.3092
1103.0,0.3069
1104.0,0.3073
1105.0,0.3342
1106.0,0.2618
1107.0,0.3186
1108.0,0.2738
1109.0,0.2736
1110.0,0.3163
1111.0,0.2196
1112.0,0.2712
1113.0,0.1778
1114.0,0.1982
1115.0,0.1645
1116.0,0.1345
1117.0,0.05294
1118.0,0.1451
1119.0,0.07481
1120.0,0.09428
1121.0,0.1234
1122.0,0.05435
1123.0,0.0851
1124.0,0.07186
1125.0,0.09308
1126.0,0.03481
1127.0,0.1048
1128.0,0.06528
1129.0,0.06888
1130.0,0.04642
1131.0,0.1926
1132.0,0.1522
1133.0,0.09975
1134.0,0.02749
1135.0,0.0102
1136.0,0.08438
1137.0,0.1902
1138.0,0.1347
1139.0,0.1947
1140.0,0.165
1141.0,0.128
1142.0,0.1459
1143.0,0.2046
1144.0,0.07461
1145.0,0.09612
1146.0,0.1037
1147.0,0.039
1148.0,0.1772
1149.0,0.1434
1150.0,0.08003
1151.0,0.1337
1152.0,0.1623
1153.0,0.1565
1154.0,0.09364
1155.0,0.2032
1156.0,0.1842
1157.0,0.2048
1158.0,0.2025
1159.0,0.2168
1160.0,0.1872
1161.0,0.2269
1162.0,0.2283
1163.0,0.3019
1164.0,0.2613
1165.0,0.2488
1166.0,0.2455
1167.0,0.2661
1168.0,0.2696
1169.0,0.2751
1170.0,0.297
1171.0,0.2899
1172.0,0.294
1173.0,0.2964
1174.0,0.2171
1175.0,0.2887
1176.0,0.3146
1177.0,0.3038
1178.0,0.2324
1179.0,0.317
1180.0,0.286
1181.0,0.2949
1182.0,0.2081
1183.0,0.2897
1184.0,0.273
1185.0,0.2648
1186.0,0.3094
1187.0,0.2961
1188.0,0.2121
1189.0,0.2762
1190.0,0.3023
1191.0,0.2895
1192.0,0.3062
1193.0,0.2944
1194.0,0.3028
1195.0,0.2881
1196.0,0.2786
1197.0,0.302
1198.0,0.2776
1199.0,0.2401
1200.0,0.2908
1201.0,0.2818
1202.0,0.2794
1203.0,0.2771
1204.0,0.2446
1205.0,0.2847
1206.0,0.3122
1207.0,0.2791
1208.0,0.2735
1209.0,0.2788
1210.0,0.2895
1211.0,0.2773
1212.0,0.2757
1213.0,0.3028
1214.0,0.2815
1215.0,0.2765
1216.0,0.3018
1217.0,0.2946
1218.0,0.2994
1219.0,0.2961
1220.0,0.2996
1221.0,0.3021
1222.0,0.2948
1223.0,0.2923
1224.0,0.2911
1225.0,0.3003
1226.0,0.3018
1227.0,0.2804
1228.0,0.3028
1229.0,0.3018
1230.0,0.297
1231.0,0.3042
1232.0,0.3024
1233.0,0.2937
1234.0,0.3036
1235.0,0.3019
1236.0,0.3039
1237.0,0.3003
1238.0,0.3029
1239.0,0.299
1240.0,0.3
1241.0,0.299
1242.0,0.298
1243.0,0.2956
1244.0,0.2978
1245.0,0.299
1246.0,0.2972
1247.0,0.2962
1248.0,0.2962
1249.0,0.2969
1250.0,0.2953
1251.0,0.2917
1252.0,0.2915
1253.0,0.2897
1254.0,0.2872
1255.0,0.2913
1256.0,0.2842
1257.0,0.2828
1258.0,0.2873
1259.0,0.2785
1260.0,0.2798
1261.0,0.2661
1262.0,0.2592
1263.0,0.2598
1264.0,0.2423
1265.0,0.2581
1266.0,0.2498
1267.0,0.2532
1268.0,0.2418
1269.0,0.1612
1270.0,0.2527
1271.0,0.265
1272.0,0.2656
1273.0,0.263
1274.0,0.2636
1275.0,0.267
1276.0,0.2692
1277.0,0.2705
1278.0,0.2748
1279.0,0.2724
1280.0,0.2689
1281.0,0.2562
1282.0,0.2462
1283.0,0.2653
1284.0,0.2718
1285.0,0.2735
1286.0,0.2768
1287.0,0.2732
1288.0,0.273
1289.0,0.2656
1290.0,0.2705
1291.0,0.274
1292.0,0.2599
1293.0,0.2693
1294.0,0.2675
1295.0,0.2668
1296.0,0.2563
1297.0,0.2437
1298.0,0.2598
1299.0,0.2694
1300.0,0.2323
1301.0,0.2386
1302.0,0.2589
1303.0,0.2288
1304.0,0.1991
1305.0,0.2539
1306.0,0.2542
1307.0,0.202
1308.0,0.2285
1309.0,0.2526
1310.0,0.1983
1311.0,0.2199
1312.0,0.2146
1313.0,0.2111
1314.0,0.1904
1315.0,0.1888
1316.0,0.2171
1317.0,0.2061
1318.0,0.2224
1319.0,0.1785
1320.0,0.1719
1321.0,0.1987
1322.0,0.2013
1323.0,0.1553
1324.0,0.175
1325.0,0.2142
1326.0,0.1863
1327.0,0.1783
1328.0,0.155
1329.0,0.1196
1330.0,0.154
1331.0,0.09678
1332.0,0.09863
1333.0,0.1363
1334.0,0.1138
1335.0,0.1547
1336.0,0.1243
1337.0,0.111
1338.0,0.12
1339.0,0.119
1340.0,0.1147
1341.0,0.1143
1342.0,0.1198
1343.0,0.08582
1344.0,0.0512
1345.0,0.07342
1346.0,0.03958
1347.0,0.04077
1348.0,0.003256
1349.0,0.01101
1350.0,0.01095
1351.0,0.003204
1352.0,0.001052
1353.0,6.73e-05
1354.0,0.0002013
1355.0,2.558e-06
1356.0,3.349e-05
1357.0,5.066e-05
1358.0,2.975e-06
1359.0,5.248e-07
1360.0,1.535e-06
1361.0,3.537e-09
1362.0,1.337e-11
1363.0,2.27e-06
1364.0,9.7e-07
1365.0,6.897e-12
1366.0,9.063e-06
1367.0,3.543e-06
1368.0,1.149e-13
1369.0,3.709e-07
1370.0,2.107e-07
1371.0,1.437e-08
1372.0,1.953e-06
1373.0,3.121e-05
1374.0,0.000124
1375.0,0.0002252
1376.0,0.0001797
1377.0,8.545e-05
1378.0,0.0007732
1379.0,3.622e-05
1380.0,5.719e-05
1381.0,1.661e-06
1382.0,1.833e-06
1383.0,3.169e-08
1384.0,4.431e-07
1385.0,1.485e-06
1386.0,1.798e-06
1387.0,0.0001402
1388.0,2.843e-06
1389.0,0.0004027
1390.0,0.0003463
1391.0,0.00024
1392.0,1.663e-05
1393.0,8.079e-05
1394.0,5.335e-05
1395.0,4.781e-07
1396.0,4.634e-09
1397.0,3.433e-05
1398.0,0.0008809
1399.0,0.0005583
1400.0,2.411e-09
1401.0,7.784e-09
1402.0,0.001266
1403.0,0.001651
1404.0,0.000512
1405.0,2.63e-07
1406.0,0.001417
1407.0,0.0001212
1408.0,0.001148
1409.0,0.0004325
1410.0,0.0003242
1411.0,0.001442
1412.0,0.001843
1413.0,0.01608
1414.0,0.0002525
1415.0,0.0001282
1416.0,0.02426
1417.0,0.008057
1418.0,0.009243
1419.0,0.00147
1420.0,0.005685
1421.0,0.006179
1422.0,0.03147
1423.0,0.00629
1424.0,0.01162
1425.0,0.01735
1426.0,0.01904
1427.0,0.03353
1428.0,0.003107
1429.0,0.02573
1430.0,0.04224
1431.0,0.046
1432.0,0.002465
1433.0,0.02981
1434.0,0.01544
1435.0,0.01638
1436.0,0.03013
1437.0,0.02308
1438.0,0.01016
1439.0,0.04032
1440.0,0.03027
1441.0,0.02377
1442.0,0.02623
1443.0,0.03188
1444.0,0.04369
1445.0,0.03504
1446.0,0.01602
1447.0,0.0252
1448.0,0.07933
1449.0,0.06969
1450.0,0.01865
1451.0,0.007693
1452.0,0.04273
1453.0,0.05565
1454.0,0.09279
1455.0,0.04477
