interpolation:linear
wavelength,value
280.0,9.511000000000001e-20
280.5,2.576e-18
281.0,9.77e-20
281.5,5.018e-19
282.0,2.418e-18
282.5,7.052e-18
283.0,2.393e-17
283.5,3.974e-17
284.0,6.329e-16
284.5,1.79e-15
285.0,4.235e-15
285.5,2.756e-14
286.0,1.202e-13
286.5,6.037e-13
287.0,1.844e-12
287.5,7.544e-12
288.0,2.3e-11
288.5,9.194e-11
289.0,3.113e-10
289.5,1.18e-09
290.0,3.895e-09
290.5,9.143e-09
291.0,2.303e-08
291.5,8.014e-08
292.0,2.039e-07
292.5,3.172e-07
293.0,7.747e-07
293.5,2.255e-06
294.0,4.049e-06
294.5,5.196e-06
295.0,9.92e-06
295.5,2.296e-05
296.0,4.284e-05
296.5,5.792e-05
297.0,7.62e-05
297.5,0.0001957
298.0,0.000297
298.5,0.0002901
299.0,0.0006212
299.5,0.0009781
300.0,0.001045
300.5,0.001467
301.0,0.002523
301.5,0.003838
302.0,0.003206
302.5,0.005993
303.0,0.01016
303.5,0.01234
304.0,0.01131
304.5,0.01581
305.0,0.0219
305.5,0.02371
306.0,0.02246
306.5,0.02698
307.0,0.03704
307.5,0.04576
308.0,0.04777
308.5,0.05444
309.0,0.0522
309.5,0.05682
310.0,0.05577
310.5,0.08927
311.0,0.1099
311.5,0.1052
312.0,0.1008
312.5,0.1192
313.0,0.1274
313.5,0.1254
314.0,0.1515
314.5,0.1284
315.0,0.1674
315.5,0.1431
316.0,0.1205
316.5,0.1676
317.0,0.2081
317.5,0.2185
318.0,0.1668
318.5,0.1987
319.0,0.2309
319.5,0.1945
320.0,0.2362
320.5,0.2834
321.0,0.243
321.5,0.232
322.0,0.2575
322.5,0.2235
323.0,0.2167
323.5,0.2596
324.0,0.3017
324.5,0.3096
325.0,0.2713
325.5,0.3414
326.0,0.4145
326.5,0.4092
327.0,0.4099
327.5,0.3984
328.0,0.3615
328.5,0.3713
329.0,0.4365
329.5,0.4927
330.0,0.4991
330.5,0.405
331.0,0.4145
331.5,0.4168
332.0,0.4436
332.5,0.4358
333.0,0.4361
333.5,0.399
334.0,0.4095
334.5,0.4665
335.0,0.4352
335.5,0.5082
336.0,0.3515
336.5,0.413
337.0,0.3406
337.5,0.4243
338.0,0.41
338.5,0.4731
339.0,0.468
339.5,0.4501
340.0,0.5291
340.5,0.4763
341.0,0.4647
341.5,0.4264
342.0,0.5095
342.5,0.4765
343.0,0.5241
343.5,0.4935
344.0,0.3645
344.5,0.3683
345.0,0.4871
345.5,0.4971
346.0,0.4223
346.5,0.478
347.0,0.5132
347.5,0.4149
348.0,0.4728
348.5,0.4724
349.0,0.4381
349.5,0.4337
350.0,0.5363
350.5,0.5657
351.0,0.5053
351.5,0.4912
352.0,0.5274
352.5,0.4114
353.0,0.518
353.5,0.5538
354.0,0.5748
354.5,0.5829
355.0,0.581
355.5,0.5247
356.0,0.5489
356.5,0.4686
357.0,0.3872
357.5,0.474
358.0,0.3756
358.5,0.321
359.0,0.4489
359.5,0.5721
360.0,0.6064
360.5,0.4846
361.0,0.4417
361.5,0.5084
362.0,0.4395
362.5,0.6081
363.0,0.546
363.5,0.5028
364.0,0.6148
364.5,0.5255
365.0,0.5351
365.5,0.6716
366.0,0.7114
366.5,0.6683
367.0,0.6507
367.5,0.6753
368.0,0.5909
368.5,0.5961
369.0,0.6437
369.5,0.6861
370.0,0.7313
370.5,0.5675
371.0,0.6063
371.5,0.7585
372.0,0.5034
372.5,0.6035
373.0,0.6138
373.5,0.3993
374.0,0.5802
374.5,0.4805
375.0,0.467
375.5,0.6972
376.0,0.578
376.5,0.5989
377.0,0.6341
377.5,0.7417
378.0,0.804
378.5,0.76
379.0,0.6272
379.5,0.5729
380.0,0.5957
380.5,0.7214
381.0,0.7228
381.5,0.5729
382.0,0.5087
382.5,0.4336
383.0,0.4013
383.5,0.3865
384.0,0.4263
384.5,0.627
385.0,0.6218
385.5,0.579
386.0,0.4958
386.5,0.6513
387.0,0.5412
387.5,0.6078
388.0,0.5611
388.5,0.5546
389.0,0.5987
389.5,0.7251
390.0,0.7276
390.5,0.6696
391.0,0.7881
391.5,0.8039
392.0,0.6771
392.5,0.6061
393.0,0.3372
393.5,0.2451
394.0,0.4987
394.5,0.634
395.0,0.7736
395.5,0.7859
396.0,0.6814
396.5,0.3982
397.0,0.2988
397.5,0.6077
398.0,0.8511
398.5,0.8797
399.0,0.9524
399.5,0.9492
400.0,0.9858
401.0,1.002
402.0,1.057
403.0,1.004
404.0,0.9882
405.0,0.988
406.0,0.9717
407.0,0.9558
408.0,0.9931
409.0,1.063
410.0,0.9285
411.0,1.006
412.0,1.08
413.0,1.053
414.0,1.066
415.0,1.068
416.0,1.086
417.0,1.06
418.0,1.04
419.0,1.053
420.0,1.049
421.0,1.097
422.0,1.043
423.0,1.018
424.0,1.077
425.0,1.075
426.0,1.046
427.0,1.027
428.0,1.0
429.0,0.9469
430.0,0.8286
431.0,0.8213
432.0,1.06
433.0,1.066
434.0,0.9896
435.0,1.034
436.0,1.164
437.0,1.148
438.0,1.045
439.0,1.081
440.0,1.116
441.0,1.156
442.0,1.239
443.0,1.207
444.0,1.233
445.0,1.207
446.0,1.151
447.0,1.244
448.0,1.263
449.0,1.268
450.0,1.303
451.0,1.351
452.0,1.301
453.0,1.224
454.0,1.277
455.0,1.285
456.0,1.315
457.0,1.337
458.0,1.292
459.0,1.285
460.0,1.289
461.0,1.318
462.0,1.328
463.0,1.319
464.0,1.296
465.0,1.279
466.0,1.291
467.0,1.268
468.0,1.283
469.0,1.289
470.0,1.248
471.0,1.247
472.0,1.313
473.0,1.297
474.0,1.299
475.0,1.31
476.0,1.272
477.0,1.276
478.0,1.311
479.0,1.303
480.0,1.305
481.0,1.328
482.0,1.335
483.0,1.318
484.0,1.291
485.0,1.229
486.0,1.074
487.0,1.125
488.0,1.235
489.0,1.239
490.0,1.303
491.0,1.28
492.0,1.209
493.0,1.248
494.0,1.261
495.0,1.271
496.0,1.279
497.0,1.299
498.0,1.238
499.0,1.254
500.0,1.218
501.0,1.196
502.0,1.18
503.0,1.229
504.0,1.2
505.0,1.241
506.0,1.281
507.0,1.219
508.0,1.18
509.0,1.213
510.0,1.206
511.0,1.238
512.0,1.251
513.0,1.184
514.0,1.175
515.0,1.164
516.0,1.161
517.0,1.031
518.0,1.084
519.0,1.137
520.0,1.179
521.0,1.19
522.0,1.191
523.0,1.17
524.0,1.212
525.0,1.227
526.0,1.173
527.0,1.105
528.0,1.169
529.0,1.233
530.0,1.216
531.0,1.234
532.0,1.191
533.0,1.157
534.0,1.191
535.0,1.216
536.0,1.227
537.0,1.178
538.0,1.199
539.0,1.189
540.0,1.14
541.0,1.148
542.0,1.185
543.0,1.172
544.0,1.193
545.0,1.189
546.0,1.195
547.0,1.194
548.0,1.179
549.0,1.182
550.0,1.196
551.0,1.182
552.0,1.19
553.0,1.169
554.0,1.197
555.0,1.199
556.0,1.184
557.0,1.147
558.0,1.139
559.0,1.118
560.0,1.132
561.0,1.147
562.0,1.139
563.0,1.171
564.0,1.14
565.0,1.13
566.0,1.114
567.0,1.135
568.0,1.127
569.0,1.102
570.0,1.102
571.0,1.094
572.0,1.122
573.0,1.134
574.0,1.131
575.0,1.111
576.0,1.1
577.0,1.112
578.0,1.095
579.0,1.098
580.0,1.117
581.0,1.122
582.0,1.142
583.0,1.144
584.0,1.153
585.0,1.124
586.0,1.101
587.0,1.126
588.0,1.102
589.0,0.9821
590.0,1.027
591.0,1.083
592.0,1.071
593.0,1.084
594.0,1.078
595.0,1.053
596.0,1.09
597.0,1.079
598.0,1.075
599.0,1.076
600.0,1.076
601.0,1.066
602.0,1.059
603.0,1.076
604.0,1.093
605.0,1.088
606.0,1.083
607.0,1.093
608.0,1.08
609.0,1.082
610.0,1.073
611.0,1.079
612.0,1.075
613.0,1.062
614.0,1.047
615.0,1.069
616.0,1.034
617.0,1.031
618.0,1.071
619.0,1.06
620.0,1.066
621.0,1.068
622.0,1.056
623.0,1.04
624.0,1.022
625.0,1.02
626.0,1.035
627.0,1.047
628.0,0.9907
629.0,1.027
630.0,1.004
631.0,1.022
632.0,1.009
633.0,1.038
634.0,1.027
635.0,1.042
636.0,1.027
637.0,1.044
638.0,1.053
639.0,1.04
640.0,1.03
641.0,1.029
642.0,1.023
643.0,1.037
644.0,1.033
645.0,1.035
646.0,1.013
647.0,1.004
648.0,1.005
649.0,0.9861
650.0,0.9864
651.0,1.028
652.0,0.9904
653.0,1.015
654.0,1.003
655.0,0.9679
656.0,0.8561
657.0,0.8789
658.0,0.9837
659.0,0.9901
660.0,0.994
661.0,1.001
662.0,1.004
663.0,0.9835
664.0,0.994
665.0,0.9938
666.0,0.9942
667.0,0.9928
668.0,0.9927
669.0,1.008
670.0,1.003
671.0,1.003
672.0,0.9941
673.0,1.009
674.0,1.005
675.0,0.9955
676.0,1.002
677.0,0.9921
678.0,0.9947
679.0,0.9785
680.0,0.9863
681.0,0.9797
682.0,0.9784
683.0,0.9765
684.0,0.9717
685.0,0.9798
686.0,0.9742
687.0,0.7021
688.0,0.796
689.0,0.798
690.0,0.8281
691.0,0.8617
692.0,0.8852
693.0,0.8789
694.0,0.8717
695.0,0.9011
696.0,0.9023
697.0,0.9491
698.0,0.9345
699.0,0.9176
700.0,0.9067
701.0,0.8992
702.0,0.9034
703.0,0.905
704.0,0.9306
705.0,0.932
706.0,0.9299
707.0,0.9301
708.0,0.9323
709.0,0.9316
710.0,0.9325
711.0,0.9306
712.0,0.9269
713.0,0.9184
714.0,0.9217
715.0,0.8946
716.0,0.8957
717.0,0.7972
718.0,0.7358
719.0,0.6762
720.0,0.7098
721.0,0.7708
722.0,0.8681
723.0,0.8153
724.0,0.7427
725.0,0.7337
726.0,0.7664
727.0,0.7727
728.0,0.7327
729.0,0.7528
730.0,0.7963
731.0,0.7643
732.0,0.8098
733.0,0.8498
734.0,0.8679
735.0,0.851
736.0,0.8498
737.0,0.8534
738.0,0.8617
739.0,0.8449
740.0,0.8653
741.0,0.8558
742.0,0.8558
743.0,0.8773
744.0,0.8743
745.0,0.874
746.0,0.878
747.0,0.8798
748.0,0.8779
749.0,0.8679
750.0,0.8673
751.0,0.8585
752.0,0.8621
753.0,0.8664
754.0,0.8684
755.0,0.8635
756.0,0.8631
757.0,0.8643
758.0,0.8537
759.0,0.8392
760.0,0.1972
761.0,0.1169
762.0,0.486
763.0,0.2779
764.0,0.3864
765.0,0.4863
766.0,0.5697
767.0,0.6923
768.0,0.7781
769.0,0.7899
770.0,0.8116
771.0,0.8159
772.0,0.8169
773.0,0.8224
774.0,0.8183
775.0,0.812
776.0,0.8218
777.0,0.8109
778.0,0.806
779.0,0.8067
780.0,0.8021
781.0,0.8029
782.0,0.8079
783.0,0.7938
784.0,0.7975
785.0,0.7918
786.0,0.8007
787.0,0.7888
788.0,0.78
789.0,0.78
790.0,0.7624
791.0,0.766
792.0,0.7599
793.0,0.748
794.0,0.7575
795.0,0.7711
796.0,0.7517
797.0,0.7528
798.0,0.7707
799.0,0.7665
800.0,0.7543
801.0,0.7528
802.0,0.7506
803.0,0.7454
804.0,0.746
805.0,0.7424
806.0,0.7612
807.0,0.7525
808.0,0.753
809.0,0.7404
810.0,0.7354
811.0,0.7384
812.0,0.7202
813.0,0.7071
814.0,0.6322
815.0,0.628
816.0,0.586
817.0,0.5954
818.0,0.5755
819.0,0.6345
820.0,0.601
821.0,0.6905
822.0,0.6727
823.0,0.4769
824.0,0.6573
825.0,0.6791
826.0,0.6569
827.0,0.6894
828.0,0.5954
829.0,0.6522
830.0,0.6448
831.0,0.6467
832.0,0.6288
833.0,0.6634
834.0,0.6435
835.0,0.6992
836.0,0.6741
837.0,0.7009
838.0,0.6812
839.0,0.6898
840.0,0.7044
841.0,0.6953
842.0,0.6954
843.0,0.6936
844.0,0.6847
845.0,0.7067
846.0,0.7034
847.0,0.6899
848.0,0.6862
849.0,0.6667
850.0,0.6387
851.0,0.6769
852.0,0.6718
853.0,0.6462
854.0,0.5584
855.0,0.6128
856.0,0.67
857.0,0.6845
858.0,0.6796
859.0,0.6799
860.0,0.681
861.0,0.6773
862.0,0.6879
863.0,0.7041
864.0,0.6689
865.0,0.663
866.0,0.5961
867.0,0.6221
868.0,0.6769
869.0,0.6628
870.0,0.6817
871.0,0.6724
872.0,0.67
873.0,0.6687
874.0,0.6607
875.0,0.6473
876.0,0.6541
877.0,0.6607
878.0,0.668
879.0,0.6577
880.0,0.6436
881.0,0.6342
882.0,0.648
883.0,0.6498
884.0,0.6469
885.0,0.6518
886.0,0.6223
887.0,0.6281
888.0,0.6378
889.0,0.6442
890.0,0.6399
891.0,0.6382
892.0,0.6212
893.0,0.6035
894.0,0.5856
895.0,0.5577
896.0,0.5273
897.0,0.4588
898.0,0.4973
899.0,0.3854
900.0,0.5056
901.0,0.4037
902.0,0.4642
903.0,0.4719
904.0,0.5812
905.0,0.5631
906.0,0.5285
907.0,0.4381
908.0,0.4456
909.0,0.4785
910.0,0.4306
911.0,0.4545
912.0,0.4734
913.0,0.4374
914.0,0.4323
915.0,0.4679
916.0,0.3984
917.0,0.4973
918.0,0.4087
919.0,0.5044
920.0,0.5058
921.0,0.5252
922.0,0.4748
923.0,0.507
924.0,0.487
925.0,0.4765
926.0,0.4818
927.0,0.5342
928.0,0.4064
929.0,0.3749
930.0,0.3008
931.0,0.2839
932.0,0.2108
933.0,0.1747
934.0,0.1031
935.0,0.176
936.0,0.1144
937.0,0.1166
938.0,0.1415
939.0,0.2752
940.0,0.3267
941.0,0.2525
942.0,0.2885
943.0,0.1944
944.0,0.2006
945.0,0.2593
946.0,0.1382
947.0,0.262
948.0,0.1935
949.0,0.3445
950.0,0.1055
951.0,0.3382
952.0,0.1899
953.0,0.2399
954.0,0.2882
955.0,0.242
956.0,0.232
957.0,0.1911
958.0,0.3202
959.0,0.2608
960.0,0.2922
961.0,0.323
962.0,0.3063
963.0,0.3488
964.0,0.321
965.0,0.347
966.0,0.3481
967.0,0.347
968.0,0.4506
969.0,0.4718
970.0,0.4353
971.0,0.4919
972.0,0.4718
973.0,0.4172
974.0,0.3969
975.0,0.4094
976.0,0.3922
977.0,0.4396
978.0,0.4204
979.0,0.4383
980.0,0.4134
981.0,0.4888
982.0,0.4696
983.0,0.4523
984.0,0.501
985.0,0.4678
986.0,0.5083
987.0,0.5
988.0,0.4991
989.0,0.5058
990.0,0.496
991.0,0.5075
992.0,0.5102
993.0,0.5005
994.0,0.5099
995.0,0.509
996.0,0.507
997.0,0.5077
998.0,0.5054
999.0,0.5034
1000.0,0.5003
1001.0,0.5061
1002.0,0.4937
1003.0,0.4973
1004.0,0.4855
1005.0,0.4672
1006.0,0.4857
1007.0,0.4958
1008.0,0.4934
1009.0,0.4911
1010.0,0.4892
1011.0,0.4933
1012.0,0.4893
1013.0,0.492
1014.0,0.4885
1015.0,0.4854
1016.0,0.4832
1017.0,0.4845
1018.0,0.4825
1019.0,0.4728
1020.0,0.48
1021.0,0.4793
1022.0,0.4758
1023.0,0.4808
1024.0,0.4752
1025.0,0.4803
1026.0,0.4784
1027.0,0.4773
1028.0,0.4763
1029.0,0.4707
1030.0,0.4737
1031.0,0.4719
1032.0,0.4705
1033.0,0.4634
1034.0,0.4634
1035.0,0.4649
1036.0,0.4673
1037.0,0.4597
1038.0,0.4618
1039.0,0.4616
1040.0,0.4597
1041.0,0.4616
1042.0,0.4584
1043.0,0.457
1044.0,0.4586
1045.0,0.4524
1046.0,0.4474
1047.0,0.4515
1048.0,0.454
1049.0,0.4524
1050.0,0.4504
1051.0,0.4498
1052.0,0.4481
1053.0,0.4446
1054.0,0.4456
1055.0,0.446
1056.0,0.4445
1057.0,0.4432
1058.0,0.4324
1059.0,0.4329
1060.0,0.4323
1061.0,0.4319
1062.0,0.4342
1063.0,0.43
1064.0,0.4351
1065.0,0.4322
1066.0,0.4235
1067.0,0.429
1068.0,0.4198
1069.0,0.4067
1070.0,0.4207
1071.0,0.4266
1072.0,0.4221
1073.0,0.416
1074.0,0.4261
1075.0,0.4065
1076.0,0.4259
1077.0,0.4192
1078.0,0.4116
1079.0,0.4188
1080.0,0.4127
1081.0,0.4003
1082.0,0.4053
1083.0,0.4062
1084.0,0.3998
1085.0,0.4135
1086.0,0.38
1087.0,0.3903
1088.0,0.4061
1089.0,0.3952
1090.0,0.3876
1091.0,0.4052
1092.0,0.4038
1093.0,0.3473
1094.0,0.3701
1095.0,0.3611
1096.0,0.3472
1097.0,0.3944
1098.0,0.3423
1099.0,0.3563
1100.0,0.3334
1101.0,0.3369
1102.0,0.3231
1103.0,0.3209
1104.0,0.3213
1105.0,0.3486
1106.0,0.2751
1107.0,0.3327
1108.0,0.2871
1109.0,0.2866
1110.0,0.3304
1111.0,0.231
1112.0,0.284
1113.0,0.188
1114.0,0.2092
1115.0,0.1737
1116.0,0.1431
1117.0,0.05752
1118.0,0.154
1119.0,0.08032
1120.0,0.1012
1121.0,0.1319
1122.0,0.05891
1123.0,0.09135
1124.0,0.07715
1125.0,0.09971
1126.0,0.03811
1127.0,0.1122
1128.0,0.07076
1129.0,0.07452
1130.0,0.05064
1131.0,0.2042
1132.0,0.1618
1133.0,0.1071
1134.0,0.03023
1135.0,0.01119
1136.0,0.09097
1137.0,0.2019
1138.0,0.1432
1139.0,0.2051
1140.0,0.1746
1141.0,0.1361
1142.0,0.1548
1143.0,0.2162
1144.0,0.0799
1145.0,0.1032
1146.0,0.1113
1147.0,0.04273
1148.0,0.1872
1149.0,0.1521
1150.0,0.08568
1151.0,0.1422
1152.0,0.1719
1153.0,0.1652
1154.0,0.1007
1155.0,0.214
1156.0,0.1944
1157.0,0.2156
1158.0,0.2132
1159.0,0.2277
1160.0,0.1973
1161.0,0.238
1162.0,0.2396
1163.0,0.3148
1164.0,0.2733
1165.0,0.2608
1166.0,0.2569
1167.0,0.2782
1168.0,0.2819
1169.0,0.2874
1170.0,0.3098
1171.0,0.3025
1172.0,0.3064
1173.0,0.3091
1174.0,0.228
1175.0,0.3009
1176.0,0.3272
1177.0,0.3164
1178.0,0.2432
1179.0,0.3297
1180.0,0.2982
1181.0,0.3074
1182.0,0.2181
1183.0,0.3018
1184.0,0.2848
1185.0,0.2766
1186.0,0.322
1187.0,0.3085
1188.0,0.2224
1189.0,0.2879
1190.0,0.3146
1191.0,0.3019
1192.0,0.3187
1193.0,0.3065
1194.0,0.3152
1195.0,0.3003
1196.0,0.2906
1197.0,0.3141
1198.0,0.2891
1199.0,0.251
1200.0,0.3029
1201.0,0.2938
1202.0,0.2911
1203.0,0.2888
1204.0,0.2554
1205.0,0.2963
1206.0,0.3245
1207.0,0.2909
1208.0,0.2848
1209.0,0.2902
1210.0,0.3012
1211.0,0.2888
1212.0,0.2875
1213.0,0.3149
1214.0,0.2933
1215.0,0.2883
1216.0,0.3138
1217.0,0.3065
1218.0,0.3114
1219.0,0.308
1220.0,0.3115
1221.0,0.3141
1222.0,0.3065
1223.0,0.3041
1224.0,0.3029
1225.0,0.3121
1226.0,0.3136
1227.0,0.2919
1228.0,0.3146
1229.0,0.3136
1230.0,0.3087
1231.0,0.3159
1232.0,0.3141
1233.0,0.3054
1234.0,0.3152
1235.0,0.3135
1236.0,0.3155
1237.0,0.312
1238.0,0.3145
1239.0,0.3104
1240.0,0.3115
1241.0,0.3106
1242.0,0.3094
1243.0,0.3069
1244.0,0.3092
1245.0,0.3104
1246.0,0.3086
1247.0,0.3076
1248.0,0.3076
1249.0,0.3083
1250.0,0.3066
1251.0,0.303
1252.0,0.3027
1253.0,0.3009
1254.0,0.2985
1255.0,0.3025
1256.0,0.2954
1257.0,0.294
1258.0,0.2985
1259.0,0.2897
1260.0,0.291
1261.0,0.2772
1262.0,0.2703
1263.0,0.2709
1264.0,0.2532
1265.0,0.2691
1266.0,0.2608
1267.0,0.2641
1268.0,0.2525
1269.0,0.171
1270.0,0.2636
1271.0,0.276
1272.0,0.2766
1273.0,0.2739
1274.0,0.2744
1275.0,0.2779
1276.0,0.2801
1277.0,0.2814
1278.0,0.2857
1279.0,0.2832
1280.0,0.2796
1281.0,0.2663
1282.0,0.2558
1283.0,0.2756
1284.0,0.2824
1285.0,0.2841
1286.0,0.2875
1287.0,0.2839
1288.0,0.2836
1289.0,0.2762
1290.0,0.281
1291.0,0.2846
1292.0,0.2704
1293.0,0.2798
1294.0,0.278
1295.0,0.2774
1296.0,0.2668
1297.0,0.254
1298.0,0.2703
1299.0,0.2799
1300.0,0.2423
1301.0,0.2486
1302.0,0.2693
1303.0,0.2385
1304.0,0.2085
1305.0,0.2642
1306.0,0.2645
1307.0,0.2112
1308.0,0.2381
1309.0,0.2629
1310.0,0.2074
1311.0,0.2294
1312.0,0.224
1313.0,0.2205
1314.0,0.1991
1315.0,0.1977
1316.0,0.2266
1317.0,0.2152
1318.0,0.2319
1319.0,0.1872
1320.0,0.1801
1321.0,0.2077
1322.0,0.2107
1323.0,0.1634
1324.0,0.1835
1325.0,0.2236
1326.0,0.1951
1327.0,0.1868
1328.0,0.1627
1329.0,0.1263
1330.0,0.1623
1331.0,0.103
1332.0,0.1046
1333.0,0.1443
1334.0,0.1201
1335.0,0.1628
1336.0,0.1312
1337.0,0.1175
1338.0,0.127
1339.0,0.1258
1340.0,0.1211
1341.0,0.1211
1342.0,0.127
1343.0,0.09224
1344.0,0.05502
1345.0,0.07872
1346.0,0.04331
1347.0,0.04476
1348.0,0.003768
1349.0,0.01253
1350.0,0.01232
1351.0,0.003777
1352.0,0.001297
1353.0,8.79e-05
1354.0,0.0002541
1355.0,3.607e-06
1356.0,4.397e-05
1357.0,6.636e-05
1358.0,4.176e-06
1359.0,7.969e-07
1360.0,2.216e-06
1361.0,6.079e-09
1362.0,2.495e-11
1363.0,3.328e-06
1364.0,1.44e-06
1365.0,1.405e-11
1366.0,1.3e-05
1367.0,5.05e-06
1368.0,2.799e-13
1369.0,5.543e-07
1370.0,3.252e-07
1371.0,2.323e-08
1372.0,2.788e-06
1373.0,4.202e-05
1374.0,0.0001607
1375.0,0.0002909
1376.0,0.0002265
1377.0,0.0001087
1378.0,0.0009616
1379.0,4.624e-05
1380.0,7.451e-05
1381.0,2.228e-06
1382.0,2.64e-06
1383.0,4.745e-08
1384.0,6.7e-07
1385.0,2.065e-06
1386.0,2.646e-06
1387.0,0.0001849
1388.0,3.803e-06
1389.0,0.000511
1390.0,0.0004389
1391.0,0.0003076
1392.0,2.172e-05
1393.0,0.0001031
1394.0,7.201e-05
1395.0,6.807e-07
1396.0,7.789e-09
1397.0,4.453e-05
1398.0,0.001098
1399.0,0.0006966
1400.0,4.231e-09
1401.0,1.287e-08
1402.0,0.001506
1403.0,0.00198
1404.0,0.0006165
1405.0,3.854e-07
1406.0,0.001729
1407.0,0.0001474
1408.0,0.001398
1409.0,0.0005416
1410.0,0.0004007
1411.0,0.001727
1412.0,0.002178
1413.0,0.01816
1414.0,0.0003113
1415.0,0.0001604
1416.0,0.02678
1417.0,0.009157
1418.0,0.01051
1419.0,0.001684
1420.0,0.006473
1421.0,0.007061
1422.0,0.03465
1423.0,0.007005
1424.0,0.01288
1425.0,0.0193
1426.0,0.02096
1427.0,0.03637
1428.0,0.003607
1429.0,0.02816
1430.0,0.04564
1431.0,0.04955
1432.0,0.00287
1433.0,0.03234
1434.0,0.01686
1435.0,0.01827
1436.0,0.03302
1437.0,0.02531
1438.0,0.01131
1439.0,0.04391
1440.0,0.03301
1441.0,0.02621
1442.0,0.02885
1443.0,0.03464
1444.0,0.04729
1445.0,0.03828
1446.0,0.01761
1447.0,0.0277
1448.0,0.08464
1449.0,0.07474
1450.0,0.0205
1451.0,0.008547
1452.0,0.04618
1453.0,0.05991
1454.0,0.09858
1455.0,0.04807
1456.0,0.06526
1457.0,0.08503
1458.0,0.09785
