interpolation:linear
wavelength,value
280.0,1.113e-22
280.5,3.7030000000000004e-21
281.0,1.9960000000000002e-20
281.5,4.465e-19
282.0,5.414e-19
282.5,1.319e-18
283.0,4.148e-18
283.5,6.754e-18
284.0,1.115e-16
284.5,3.266e-16
285.0,5.749e-16
285.5,2.792e-15
286.0,1.122e-14
286.5,5.03e-14
287.0,1.443e-13
287.5,5.572e-13
288.0,1.974e-12
288.5,5.771e-12
289.0,1.507e-11
289.5,4.497e-11
290.0,1.242e-10
290.5,2.528e-10
291.0,5.421e-10
291.5,1.557e-09
292.0,3.144e-09
292.5,4.393e-09
293.0,9.379e-09
293.5,2.27e-08
294.0,3.543e-08
294.5,4.703e-08
295.0,7.943e-08
295.5,1.334e-07
296.0,2.548e-07
296.5,3.525e-07
297.0,4.722e-07
297.5,1.246e-06
298.0,1.933e-06
298.5,1.918e-06
299.0,4.168e-06
299.5,6.728e-06
300.0,7.267e-06
300.5,1.032e-05
301.0,1.801e-05
301.5,2.767e-05
302.0,2.318e-05
302.5,4.537e-05
303.0,8.208e-05
303.5,0.0001047
304.0,0.0001012
304.5,0.0001632
305.0,0.000277
305.5,0.0003416
306.0,0.0003402
306.5,0.0004448
307.0,0.0007369
307.5,0.001092
308.0,0.001173
308.5,0.001463
309.0,0.001717
309.5,0.002298
310.0,0.00248
310.5,0.004161
311.0,0.005536
311.5,0.005479
312.0,0.006212
312.5,0.008212
313.0,0.009301
313.5,0.008673
314.0,0.01197
314.5,0.0121
315.0,0.01628
315.5,0.01278
316.0,0.01241
316.5,0.01952
317.0,0.02419
317.5,0.02452
318.0,0.02036
318.5,0.02847
319.0,0.03587
319.5,0.02654
320.0,0.0316
320.5,0.04465
321.0,0.04435
321.5,0.04298
322.0,0.04074
322.5,0.03566
323.0,0.03832
323.5,0.05128
324.0,0.06063
324.5,0.05957
325.0,0.04886
325.5,0.06684
326.0,0.08443
326.5,0.08816
327.0,0.08652
327.5,0.08195
328.0,0.069
328.5,0.0776
329.0,0.09801
329.5,0.1131
330.0,0.1126
330.5,0.0865
331.0,0.08691
331.5,0.0911
332.0,0.1029
332.5,0.1039
333.0,0.1024
333.5,0.08969
334.0,0.09141
334.5,0.1095
335.0,0.1052
335.5,0.1238
336.0,0.08567
336.5,0.09854
337.0,0.07962
337.5,0.09849
338.0,0.09917
338.5,0.1158
339.0,0.1149
339.5,0.1104
340.0,0.1284
340.5,0.1162
341.0,0.1143
341.5,0.1054
342.0,0.1261
342.5,0.1182
343.0,0.1297
343.5,0.122
344.0,0.08941
344.5,0.09089
345.0,0.1208
345.5,0.1237
346.0,0.1053
346.5,0.1194
347.0,0.128
347.5,0.1035
348.0,0.1183
348.5,0.1185
349.0,0.1101
349.5,0.109
350.0,0.135
350.5,0.1424
351.0,0.1271
351.5,0.1233
352.0,0.1327
352.5,0.1038
353.0,0.131
353.5,0.1402
354.0,0.1457
354.5,0.1478
355.0,0.1473
355.5,0.1333
356.0,0.1396
356.5,0.1192
357.0,0.09854
357.5,0.1207
358.0,0.09574
358.5,0.08186
359.0,0.1145
359.5,0.1459
360.0,0.1547
360.5,0.1238
361.0,0.113
361.5,0.1303
362.0,0.1128
362.5,0.1564
363.0,0.1406
363.5,0.1296
364.0,0.1587
364.5,0.1357
365.0,0.1383
365.5,0.1738
366.0,0.1843
366.5,0.1734
367.0,0.169
367.5,0.1755
368.0,0.1537
368.5,0.1552
369.0,0.1677
369.5,0.1789
370.0,0.1909
370.5,0.1483
371.0,0.1586
371.5,0.1986
372.0,0.1319
372.5,0.1583
373.0,0.1611
373.5,0.1049
374.0,0.1526
374.5,0.1265
375.0,0.1231
375.5,0.1838
376.0,0.1525
376.5,0.1581
377.0,0.1676
377.5,0.1962
378.0,0.2128
378.5,0.2012
379.0,0.1662
379.5,0.1518
380.0,0.158
380.5,0.1915
381.0,0.1922
381.5,0.1525
382.0,0.1356
382.5,0.1158
383.0,0.1073
383.5,0.1034
384.0,0.1142
384.5,0.1681
385.0,0.1669
385.5,0.1556
386.0,0.1334
386.5,0.1754
387.0,0.1458
387.5,0.1639
388.0,0.1515
388.5,0.1499
389.0,0.1619
389.5,0.1963
390.0,0.1972
390.5,0.1816
391.0,0.214
391.5,0.2184
392.0,0.1841
392.5,0.165
393.0,0.0919
393.5,0.06687
394.0,0.1362
394.5,0.1733
395.0,0.2116
395.5,0.2151
396.0,0.1867
396.5,0.1093
397.0,0.08208
397.5,0.1671
398.0,0.234
398.5,0.2421
399.0,0.2625
399.5,0.2619
400.0,0.272
401.0,0.2734
402.0,0.2891
403.0,0.2752
404.0,0.2714
405.0,0.2717
406.0,0.2679
407.0,0.2641
408.0,0.2746
409.0,0.2943
410.0,0.2576
411.0,0.2796
412.0,0.301
413.0,0.2938
414.0,0.2979
415.0,0.2993
416.0,0.3051
417.0,0.298
418.0,0.2929
419.0,0.2972
420.0,0.2963
421.0,0.3104
422.0,0.2954
423.0,0.289
424.0,0.3059
425.0,0.3058
426.0,0.2986
427.0,0.2934
428.0,0.2861
429.0,0.2717
430.0,0.2382
431.0,0.2361
432.0,0.3055
433.0,0.3076
434.0,0.2858
435.0,0.2987
436.0,0.3373
437.0,0.3335
438.0,0.3041
439.0,0.3142
440.0,0.3246
441.0,0.337
442.0,0.3617
443.0,0.3522
444.0,0.3605
445.0,0.3529
446.0,0.3377
447.0,0.3659
448.0,0.3714
449.0,0.3738
450.0,0.3848
451.0,0.3995
452.0,0.3853
453.0,0.3629
454.0,0.3796
455.0,0.3821
456.0,0.3915
457.0,0.3982
458.0,0.3842
459.0,0.3825
460.0,0.3834
461.0,0.3924
462.0,0.3961
463.0,0.3935
464.0,0.3881
465.0,0.3842
466.0,0.3886
467.0,0.3813
468.0,0.3859
469.0,0.388
470.0,0.3756
471.0,0.3754
472.0,0.3956
473.0,0.3905
474.0,0.3906
475.0,0.3933
476.0,0.3806
477.0,0.3811
478.0,0.3919
479.0,0.39
480.0,0.3913
481.0,0.3993
482.0,0.4023
483.0,0.3985
484.0,0.3909
485.0,0.3731
486.0,0.3269
487.0,0.3432
488.0,0.3766
489.0,0.3775
490.0,0.3977
491.0,0.3913
492.0,0.3697
493.0,0.382
494.0,0.386
495.0,0.3895
496.0,0.392
497.0,0.398
498.0,0.3793
499.0,0.3837
500.0,0.372
501.0,0.3645
502.0,0.3582
503.0,0.3716
504.0,0.3588
505.0,0.3743
506.0,0.3864
507.0,0.3679
508.0,0.3575
509.0,0.3684
510.0,0.3672
511.0,0.3777
512.0,0.3822
513.0,0.3619
514.0,0.3597
515.0,0.3561
516.0,0.3551
517.0,0.3158
518.0,0.3319
519.0,0.348
520.0,0.3606
521.0,0.3639
522.0,0.3638
523.0,0.357
524.0,0.3692
525.0,0.3726
526.0,0.3556
527.0,0.3343
528.0,0.353
529.0,0.3716
530.0,0.3659
531.0,0.371
532.0,0.358
533.0,0.3476
534.0,0.3581
535.0,0.3664
536.0,0.3702
537.0,0.3559
538.0,0.3624
539.0,0.3593
540.0,0.3443
541.0,0.3455
542.0,0.3558
543.0,0.3529
544.0,0.3581
545.0,0.3572
546.0,0.3579
547.0,0.3585
548.0,0.3546
549.0,0.3559
550.0,0.3602
551.0,0.356
552.0,0.3585
553.0,0.3519
554.0,0.3602
555.0,0.3607
556.0,0.3558
557.0,0.3444
558.0,0.3413
559.0,0.3343
560.0,0.3381
561.0,0.342
562.0,0.3388
563.0,0.3473
564.0,0.3372
565.0,0.3337
566.0,0.3283
567.0,0.3338
568.0,0.329
569.0,0.3178
570.0,0.3181
571.0,0.317
572.0,0.3223
573.0,0.3253
574.0,0.3237
575.0,0.3169
576.0,0.314
577.0,0.3178
578.0,0.314
579.0,0.3169
580.0,0.3255
581.0,0.3292
582.0,0.3371
583.0,0.3394
584.0,0.3433
585.0,0.3355
586.0,0.3287
587.0,0.3348
588.0,0.3224
589.0,0.2774
590.0,0.2907
591.0,0.3126
592.0,0.3058
593.0,0.3141
594.0,0.3104
595.0,0.2994
596.0,0.3182
597.0,0.3129
598.0,0.3142
599.0,0.3153
600.0,0.3175
601.0,0.3163
602.0,0.3143
603.0,0.3202
604.0,0.3259
605.0,0.3247
606.0,0.3241
607.0,0.3281
608.0,0.3253
609.0,0.3265
610.0,0.325
611.0,0.3272
612.0,0.3267
613.0,0.323
614.0,0.3193
615.0,0.3269
616.0,0.3167
617.0,0.3164
618.0,0.329
619.0,0.3259
620.0,0.328
621.0,0.3278
622.0,0.3235
623.0,0.3182
624.0,0.3132
625.0,0.3124
626.0,0.3168
627.0,0.3187
628.0,0.2779
629.0,0.3042
630.0,0.2965
631.0,0.3099
632.0,0.3075
633.0,0.3197
634.0,0.3188
635.0,0.325
636.0,0.322
637.0,0.3283
638.0,0.333
639.0,0.3301
640.0,0.3279
641.0,0.3284
642.0,0.3278
643.0,0.3324
644.0,0.3322
645.0,0.3322
646.0,0.3221
647.0,0.3126
648.0,0.3134
649.0,0.3064
650.0,0.3151
651.0,0.33
652.0,0.3094
653.0,0.3262
654.0,0.3231
655.0,0.3075
656.0,0.275
657.0,0.2829
658.0,0.3194
659.0,0.3226
660.0,0.3245
661.0,0.3272
662.0,0.3266
663.0,0.3206
664.0,0.3264
665.0,0.3282
666.0,0.3291
667.0,0.3295
668.0,0.3306
669.0,0.3362
670.0,0.3351
671.0,0.3355
672.0,0.3329
673.0,0.3383
674.0,0.3374
675.0,0.3346
676.0,0.3373
677.0,0.3342
678.0,0.3355
679.0,0.3303
680.0,0.3331
681.0,0.3311
682.0,0.3307
683.0,0.3301
684.0,0.3285
685.0,0.3317
686.0,0.3293
687.0,0.14
688.0,0.1959
689.0,0.1978
690.0,0.2198
691.0,0.2464
692.0,0.2682
693.0,0.2655
694.0,0.2657
695.0,0.2872
696.0,0.2884
697.0,0.3178
698.0,0.3126
699.0,0.2969
700.0,0.2928
701.0,0.2864
702.0,0.2917
703.0,0.2932
704.0,0.3076
705.0,0.308
706.0,0.3095
707.0,0.3106
708.0,0.311
709.0,0.315
710.0,0.3131
711.0,0.314
712.0,0.3147
713.0,0.3099
714.0,0.3116
715.0,0.2983
716.0,0.2976
717.0,0.2286
718.0,0.208
719.0,0.1883
720.0,0.1941
721.0,0.2305
722.0,0.2816
723.0,0.2535
724.0,0.2174
725.0,0.2107
726.0,0.2212
727.0,0.2318
728.0,0.2089
729.0,0.2267
730.0,0.2371
731.0,0.2253
732.0,0.2518
733.0,0.2762
734.0,0.2861
735.0,0.2784
736.0,0.2774
737.0,0.2787
738.0,0.2913
739.0,0.2858
740.0,0.2957
741.0,0.2942
742.0,0.296
743.0,0.304
744.0,0.3042
745.0,0.3051
746.0,0.3064
747.0,0.3073
748.0,0.3068
749.0,0.3034
750.0,0.3033
751.0,0.3003
752.0,0.3017
753.0,0.3033
754.0,0.304
755.0,0.3022
756.0,0.3022
757.0,0.3026
758.0,0.2987
759.0,0.2871
760.0,0.008048
761.0,0.002721
762.0,0.07226
763.0,0.0177
764.0,0.03975
765.0,0.07203
766.0,0.1153
767.0,0.1813
768.0,0.2444
769.0,0.2583
770.0,0.2774
771.0,0.2843
772.0,0.2864
773.0,0.2888
774.0,0.2877
775.0,0.2858
776.0,0.2894
777.0,0.2856
778.0,0.2838
779.0,0.2841
780.0,0.2826
781.0,0.283
782.0,0.2848
783.0,0.28
784.0,0.2815
785.0,0.2791
786.0,0.2818
787.0,0.2727
788.0,0.2674
789.0,0.2673
790.0,0.2549
791.0,0.2625
792.0,0.2614
793.0,0.2566
794.0,0.2664
795.0,0.2694
796.0,0.2535
797.0,0.253
798.0,0.2681
799.0,0.2651
800.0,0.2587
801.0,0.256
802.0,0.255
803.0,0.252
804.0,0.2534
805.0,0.2549
806.0,0.266
807.0,0.262
808.0,0.2624
809.0,0.2545
810.0,0.2507
811.0,0.2475
812.0,0.2346
813.0,0.228
814.0,0.1873
815.0,0.1874
816.0,0.1724
817.0,0.1762
818.0,0.1665
819.0,0.1973
820.0,0.1821
821.0,0.2302
822.0,0.2208
823.0,0.125
824.0,0.2076
825.0,0.2265
826.0,0.212
827.0,0.2296
828.0,0.1779
829.0,0.2119
830.0,0.2081
831.0,0.2087
832.0,0.1992
833.0,0.2195
834.0,0.2068
835.0,0.2398
836.0,0.2206
837.0,0.2405
838.0,0.2285
839.0,0.2372
840.0,0.2435
841.0,0.2382
842.0,0.2417
843.0,0.2447
844.0,0.2397
845.0,0.2499
846.0,0.2494
847.0,0.2457
848.0,0.2428
849.0,0.2359
850.0,0.2261
851.0,0.2379
852.0,0.237
853.0,0.2292
854.0,0.197
855.0,0.2178
856.0,0.2374
857.0,0.2437
858.0,0.2414
859.0,0.2423
860.0,0.2432
861.0,0.2417
862.0,0.2457
863.0,0.2515
864.0,0.239
865.0,0.2371
866.0,0.2132
867.0,0.2225
868.0,0.2422
869.0,0.2372
870.0,0.244
871.0,0.2407
872.0,0.2399
873.0,0.2395
874.0,0.2366
875.0,0.2318
876.0,0.2341
877.0,0.2366
878.0,0.2389
879.0,0.2353
880.0,0.2303
881.0,0.2261
882.0,0.2307
883.0,0.2322
884.0,0.2308
885.0,0.2325
886.0,0.2192
887.0,0.2234
888.0,0.2257
889.0,0.2303
890.0,0.2258
891.0,0.2267
892.0,0.2168
893.0,0.207
894.0,0.1927
895.0,0.1737
896.0,0.1617
897.0,0.1298
898.0,0.1457
899.0,0.1011
900.0,0.1552
901.0,0.1059
902.0,0.137
903.0,0.1336
904.0,0.1909
905.0,0.1816
906.0,0.1673
907.0,0.1206
908.0,0.1264
909.0,0.1422
910.0,0.1152
911.0,0.1315
912.0,0.1374
913.0,0.1163
914.0,0.1177
915.0,0.1262
916.0,0.1057
917.0,0.1444
918.0,0.1073
919.0,0.151
920.0,0.1614
921.0,0.1669
922.0,0.1413
923.0,0.1623
924.0,0.1421
925.0,0.1397
926.0,0.1395
927.0,0.1638
928.0,0.09794
929.0,0.08387
930.0,0.05708
931.0,0.05376
932.0,0.0309
933.0,0.02217
934.0,0.006976
935.0,0.02486
936.0,0.01178
937.0,0.01188
938.0,0.01583
939.0,0.05184
940.0,0.06874
941.0,0.04418
942.0,0.05475
943.0,0.03048
944.0,0.03784
945.0,0.04729
946.0,0.01704
947.0,0.0455
948.0,0.03282
949.0,0.06863
950.0,0.01011
951.0,0.06815
952.0,0.0279
953.0,0.04175
954.0,0.05796
955.0,0.04303
956.0,0.05004
957.0,0.02764
958.0,0.07781
959.0,0.0525
960.0,0.05895
961.0,0.07362
962.0,0.06947
963.0,0.08687
964.0,0.07773
965.0,0.08594
966.0,0.08559
967.0,0.08403
968.0,0.1415
969.0,0.1428
970.0,0.129
971.0,0.1605
972.0,0.1504
973.0,0.1181
974.0,0.1114
975.0,0.1194
976.0,0.106
977.0,0.1364
978.0,0.123
979.0,0.1322
980.0,0.1227
981.0,0.1599
982.0,0.1481
983.0,0.1397
984.0,0.1711
985.0,0.1471
986.0,0.1782
987.0,0.1706
988.0,0.1706
989.0,0.1804
990.0,0.1694
991.0,0.1804
992.0,0.1819
993.0,0.1736
994.0,0.1824
995.0,0.1829
996.0,0.1813
997.0,0.182
998.0,0.1808
999.0,0.1804
1000.0,0.178
1001.0,0.1815
1002.0,0.1717
1003.0,0.178
1004.0,0.1723
1005.0,0.1678
1006.0,0.1735
1007.0,0.1776
1008.0,0.1758
1009.0,0.1739
1010.0,0.1727
1011.0,0.1768
1012.0,0.1744
1013.0,0.1767
1014.0,0.1754
1015.0,0.1741
1016.0,0.1732
1017.0,0.1735
1018.0,0.1734
1019.0,0.1679
1020.0,0.1722
1021.0,0.1723
1022.0,0.1703
1023.0,0.172
1024.0,0.1679
1025.0,0.1725
1026.0,0.1713
1027.0,0.171
1028.0,0.1705
1029.0,0.1683
1030.0,0.1701
1031.0,0.1692
1032.0,0.1689
1033.0,0.1663
1034.0,0.1664
1035.0,0.1669
1036.0,0.1675
1037.0,0.1649
1038.0,0.1655
1039.0,0.1653
1040.0,0.1646
1041.0,0.1651
1042.0,0.1639
1043.0,0.1633
1044.0,0.1638
1045.0,0.1614
1046.0,0.1595
1047.0,0.1608
1048.0,0.1616
1049.0,0.1608
1050.0,0.1599
1051.0,0.1595
1052.0,0.1587
1053.0,0.1572
1054.0,0.1573
1055.0,0.1571
1056.0,0.1562
1057.0,0.1555
1058.0,0.1514
1059.0,0.1512
1060.0,0.1508
1061.0,0.1505
1062.0,0.151
1063.0,0.1493
1064.0,0.1511
1065.0,0.1493
1066.0,0.1469
1067.0,0.1486
1068.0,0.1449
1069.0,0.1409
1070.0,0.1452
1071.0,0.149
1072.0,0.1461
1073.0,0.1442
1074.0,0.1498
1075.0,0.138
1076.0,0.1494
1077.0,0.1444
1078.0,0.1404
1079.0,0.1479
1080.0,0.1422
1081.0,0.1353
1082.0,0.1413
1083.0,0.1428
1084.0,0.1342
1085.0,0.1428
1086.0,0.1247
1087.0,0.1323
1088.0,0.142
1089.0,0.1331
1090.0,0.1283
1091.0,0.1404
1092.0,0.1407
1093.0,0.1085
1094.0,0.1274
1095.0,0.1132
1096.0,0.1056
1097.0,0.1376
1098.0,0.1022
1099.0,0.1081
1100.0,0.09662
1101.0,0.0994
1102.0,0.09193
1103.0,0.08897
1104.0,0.08944
1105.0,0.1046
1106.0,0.06428
1107.0,0.09656
1108.0,0.07247
1109.0,0.07385
1110.0,0.09333
1111.0,0.05084
1112.0,0.07383
1113.0,0.03576
1114.0,0.04021
1115.0,0.0323
1116.0,0.02061
1117.0,0.003916
1118.0,0.02339
1119.0,0.007898
1120.0,0.009345
1121.0,0.01406
1122.0,0.003473
1123.0,0.008563
1124.0,0.007177
1125.0,0.01027
1126.0,0.001482
1127.0,0.0118
1128.0,0.004426
1129.0,0.004886
1130.0,0.002951
1131.0,0.0313
1132.0,0.02262
1133.0,0.009804
1134.0,0.001112
1135.0,0.0005045
1136.0,0.006837
1137.0,0.02891
1138.0,0.01931
1139.0,0.04066
1140.0,0.0293
1141.0,0.01853
1142.0,0.02325
1143.0,0.03853
1144.0,0.008724
1145.0,0.00937
1146.0,0.01007
1147.0,0.001615
1148.0,0.03233
1149.0,0.02268
1150.0,0.01054
1151.0,0.0192
1152.0,0.02737
1153.0,0.02984
1154.0,0.009636
1155.0,0.04231
1156.0,0.03553
1157.0,0.04582
1158.0,0.04509
1159.0,0.05105
1160.0,0.04203
1161.0,0.05922
1162.0,0.05861
1163.0,0.09404
1164.0,0.07544
1165.0,0.06596
1166.0,0.07002
1167.0,0.07873
1168.0,0.07857
1169.0,0.08167
1170.0,0.09352
1171.0,0.09115
1172.0,0.09617
1173.0,0.09343
1174.0,0.05665
1175.0,0.09445
1176.0,0.1106
1177.0,0.1014
1178.0,0.06831
1179.0,0.1114
1180.0,0.09221
1181.0,0.09535
1182.0,0.05661
1183.0,0.09531
1184.0,0.0861
1185.0,0.08015
1186.0,0.105
1187.0,0.09669
1188.0,0.0557
1189.0,0.08967
1190.0,0.1034
1191.0,0.09151
1192.0,0.1055
1193.0,0.09885
1194.0,0.1034
1195.0,0.09325
1196.0,0.08745
1197.0,0.1051
1198.0,0.09447
1199.0,0.07132
1200.0,0.09761
1201.0,0.09066
1202.0,0.09331
1203.0,0.09038
1204.0,0.07555
1205.0,0.09783
1206.0,0.1125
1207.0,0.09159
1208.0,0.09294
1209.0,0.09519
1210.0,0.1013
1211.0,0.09342
1212.0,0.08684
1213.0,0.1061
1214.0,0.09082
1215.0,0.08871
1216.0,0.1064
1217.0,0.1019
1218.0,0.1054
1219.0,0.1029
1220.0,0.1057
1221.0,0.108
1222.0,0.1044
1223.0,0.1026
1224.0,0.0999
1225.0,0.1068
1226.0,0.1091
1227.0,0.09559
1228.0,0.1107
1229.0,0.1091
1230.0,0.1063
1231.0,0.1126
1232.0,0.1118
1233.0,0.1036
1234.0,0.1135
1235.0,0.112
1236.0,0.1134
1237.0,0.1102
1238.0,0.113
1239.0,0.1116
1240.0,0.1122
1241.0,0.1105
1242.0,0.1113
1243.0,0.1105
1244.0,0.1109
1245.0,0.1116
1246.0,0.111
1247.0,0.1102
1248.0,0.1095
1249.0,0.1104
1250.0,0.1094
1251.0,0.1072
1252.0,0.1082
1253.0,0.1056
1254.0,0.1033
1255.0,0.1077
1256.0,0.1015
1257.0,0.1004
1258.0,0.1047
1259.0,0.0962
1260.0,0.09728
1261.0,0.0862
1262.0,0.08078
1263.0,0.08079
1264.0,0.06844
1265.0,0.08038
1266.0,0.07364
1267.0,0.0775
1268.0,0.06948
1269.0,0.02385
1270.0,0.07621
1271.0,0.08668
1272.0,0.0875
1273.0,0.08594
1274.0,0.08709
1275.0,0.08935
1276.0,0.09135
1277.0,0.09348
1278.0,0.09746
1279.0,0.09652
1280.0,0.09541
1281.0,0.09212
1282.0,0.09054
1283.0,0.09714
1284.0,0.09915
1285.0,0.1001
1286.0,0.1024
1287.0,0.09905
1288.0,0.09963
1289.0,0.0929
1290.0,0.0989
1291.0,0.101
1292.0,0.08857
1293.0,0.09756
1294.0,0.09663
1295.0,0.0939
1296.0,0.08599
1297.0,0.07885
1298.0,0.09055
1299.0,0.09821
1300.0,0.074
1301.0,0.07769
1302.0,0.0905
1303.0,0.0738
1304.0,0.05511
1305.0,0.08822
1306.0,0.08713
1307.0,0.05915
1308.0,0.07531
1309.0,0.08487
1310.0,0.05717
1311.0,0.07028
1312.0,0.06748
1313.0,0.0639
1314.0,0.05424
1315.0,0.05194
1316.0,0.06762
1317.0,0.06277
1318.0,0.07174
1319.0,0.04678
1320.0,0.04693
1321.0,0.0581
1322.0,0.05684
1323.0,0.03557
1324.0,0.04633
1325.0,0.06535
1326.0,0.05162
1327.0,0.04785
1328.0,0.03862
1329.0,0.02312
1330.0,0.03339
1331.0,0.0145
1332.0,0.01634
1333.0,0.02378
1334.0,0.02426
1335.0,0.0346
1336.0,0.02386
1337.0,0.02054
1338.0,0.02174
1339.0,0.0223
1340.0,0.02341
1341.0,0.01872
1342.0,0.02028
1343.0,0.008467
1344.0,0.00557
1345.0,0.007448
1346.0,0.00176
1347.0,0.001518
1348.0,2.532e-05
1349.0,0.0001175
1350.0,0.0001446
1351.0,1.124e-05
1352.0,1.196e-06
1353.0,5.246e-08
1354.0,2.078e-07
1355.0,1.371e-09
1356.0,2.546e-08
1357.0,3.856e-08
1358.0,1.611e-09
1359.0,2.017e-10
1360.0,7.302e-10
1361.0,8.15e-13
1362.0,2.229e-15
1363.0,9.8e-10
1364.0,4.047e-10
1365.0,7.784e-16
1366.0,4.249e-09
1367.0,1.738e-09
1368.0,6.01e-18
1369.0,1.491e-10
1370.0,7.341e-11
1371.0,4.161e-12
1372.0,9.433e-10
1373.0,1.932e-08
1374.0,9.444e-08
1375.0,1.657e-07
1376.0,1.817e-07
1377.0,8.013e-08
1378.0,7.717e-07
1379.0,3.444e-08
1380.0,4.252e-08
1381.0,1.091e-09
1382.0,8.257e-10
1383.0,1.233e-11
1384.0,1.615e-10
1385.0,7.833e-10
1386.0,7.268e-10
1387.0,8.942e-08
1388.0,1.848e-09
1389.0,3.341e-07
1390.0,2.785e-07
1391.0,1.865e-07
1392.0,1.232e-08
1393.0,7.024e-08
1394.0,3.036e-08
1395.0,2.211e-10
1396.0,1.061e-12
1397.0,2.594e-08
1398.0,7.893e-07
1399.0,5.128e-07
1400.0,4.537e-13
1401.0,1.882e-12
1402.0,3.877e-06
1403.0,3.468e-06
1404.0,8.841e-07
1405.0,1.042e-10
1406.0,1.636e-06
1407.0,2.738e-07
1408.0,1.417e-06
1409.0,3.637e-07
1410.0,4.06e-07
1411.0,3.256e-06
1412.0,6.473e-06
1413.0,0.000169
1414.0,3.488e-07
1415.0,1.408e-07
1416.0,0.0007958
1417.0,0.0001262
1418.0,8.178e-05
1419.0,1.101e-05
1420.0,4.9e-05
