interpolation:linear
wavelength,value
280.0,1.027e-21
280.5,3.306e-20
281.0,1.759e-19
281.5,5.25e-19
282.0,9.422e-19
282.5,2.341e-18
283.0,7.378e-18
283.5,1.198e-17
284.0,1.94e-16
284.5,5.613e-16
285.0,1.099e-15
285.5,5.303e-15
286.0,2.119e-14
286.5,9.386e-14
287.0,2.666e-13
287.5,1.015e-12
288.0,3.14e-12
288.5,9.8e-12
289.0,2.661e-11
289.5,8.137e-11
290.0,2.275e-10
290.5,4.658e-10
291.0,1.003e-09
291.5,2.887e-09
292.0,6.012e-09
292.5,8.643e-09
293.0,1.908e-08
293.5,4.815e-08
294.0,7.709e-08
294.5,1.016e-07
295.0,1.755e-07
295.5,3.968e-07
296.0,7.157e-07
296.5,1.034e-06
297.0,1.442e-06
297.5,4.085e-06
298.0,6.8e-06
298.5,7.174e-06
299.0,1.666e-05
299.5,3.065e-05
300.0,3.597e-05
300.5,5.607e-05
301.0,0.000116
301.5,0.0002137
302.0,0.0001994
302.5,0.0004006
303.0,0.0007473
303.5,0.0009665
304.0,0.0009276
304.5,0.001462
305.0,0.002393
305.5,0.002876
306.0,0.002836
306.5,0.003642
307.0,0.00578
307.5,0.008196
308.0,0.00875
308.5,0.01067
309.0,0.01072
309.5,0.01276
310.0,0.01305
310.5,0.02134
311.0,0.02719
311.5,0.02642
312.0,0.02728
312.5,0.0339
313.0,0.03719
313.5,0.03576
314.0,0.04584
314.5,0.04202
315.0,0.05555
315.5,0.04575
316.0,0.04104
316.5,0.06029
317.0,0.07484
317.5,0.0774
318.0,0.06133
318.5,0.07842
319.0,0.09446
319.5,0.07523
320.0,0.0906
320.5,0.1168
321.0,0.1068
321.5,0.1027
322.0,0.1064
322.5,0.09276
323.0,0.09411
323.5,0.1176
324.0,0.1376
324.5,0.1388
325.0,0.1189
325.5,0.1552
326.0,0.1905
326.5,0.1925
327.0,0.1913
327.5,0.184
328.0,0.162
328.5,0.1728
329.0,0.2093
329.5,0.2385
330.0,0.24
330.5,0.1904
331.0,0.1935
331.5,0.198
332.0,0.2161
332.5,0.2147
333.0,0.2136
333.5,0.192
334.0,0.1966
334.5,0.2287
335.0,0.216
335.5,0.2525
336.0,0.1748
336.5,0.2042
337.0,0.167
337.5,0.2076
338.0,0.2041
338.5,0.2359
339.0,0.2336
339.5,0.2248
340.0,0.264
340.5,0.2382
341.0,0.2325
341.5,0.2137
342.0,0.2555
342.5,0.2392
343.0,0.2631
343.5,0.2477
344.0,0.1831
344.5,0.185
345.0,0.2451
345.5,0.2505
346.0,0.213
346.5,0.2414
347.0,0.2591
347.5,0.2096
348.0,0.2391
348.5,0.2392
349.0,0.222
349.5,0.22
350.0,0.2722
350.5,0.2872
351.0,0.2566
351.5,0.2494
352.0,0.2681
352.5,0.2093
353.0,0.2639
353.5,0.2823
354.0,0.2932
354.5,0.2975
355.0,0.2965
355.5,0.2681
356.0,0.2806
356.5,0.2397
357.0,0.1981
357.5,0.2426
358.0,0.1923
358.5,0.1644
359.0,0.23
359.5,0.2932
360.0,0.3109
360.5,0.2486
361.0,0.2268
361.5,0.2614
362.0,0.2262
362.5,0.3133
363.0,0.2816
363.5,0.2595
364.0,0.3176
364.5,0.2716
365.0,0.2767
365.5,0.3475
366.0,0.3684
366.5,0.3464
367.0,0.3375
367.5,0.3503
368.0,0.3067
368.5,0.3097
369.0,0.3346
369.5,0.3568
370.0,0.3806
370.5,0.2955
371.0,0.3159
371.5,0.3954
372.0,0.2625
372.5,0.315
373.0,0.3206
373.5,0.2087
374.0,0.3034
374.5,0.2514
375.0,0.2445
375.5,0.3651
376.0,0.3028
376.5,0.3139
377.0,0.3325
377.5,0.3892
378.0,0.422
378.5,0.399
379.0,0.3293
379.5,0.3009
380.0,0.313
380.5,0.3793
381.0,0.3803
381.5,0.3017
382.0,0.2681
382.5,0.2287
383.0,0.2119
383.5,0.2042
384.0,0.2253
384.5,0.3316
385.0,0.329
385.5,0.3065
386.0,0.2627
386.5,0.3452
387.0,0.287
387.5,0.3225
388.0,0.2979
388.5,0.2946
389.0,0.3181
389.5,0.3855
390.0,0.3871
390.5,0.3564
391.0,0.4197
391.5,0.4282
392.0,0.3608
392.5,0.3232
393.0,0.1799
393.5,0.1309
394.0,0.2664
394.5,0.3389
395.0,0.4136
395.5,0.4203
396.0,0.3646
396.5,0.2133
397.0,0.1601
397.5,0.3258
398.0,0.4563
398.5,0.4718
399.0,0.5113
399.5,0.5098
400.0,0.5294
401.0,0.5357
402.0,0.5658
403.0,0.538
404.0,0.5301
405.0,0.5304
406.0,0.5222
407.0,0.5143
408.0,0.5346
409.0,0.5726
410.0,0.5007
411.0,0.5428
412.0,0.5836
413.0,0.5693
414.0,0.5768
415.0,0.5788
416.0,0.5894
417.0,0.5752
418.0,0.5649
419.0,0.5728
420.0,0.5706
421.0,0.5973
422.0,0.568
423.0,0.5552
424.0,0.5874
425.0,0.5868
426.0,0.5721
427.0,0.5617
428.0,0.5474
429.0,0.519
430.0,0.4545
431.0,0.4506
432.0,0.5822
433.0,0.5857
434.0,0.5441
435.0,0.5684
436.0,0.641
437.0,0.6329
438.0,0.5767
439.0,0.5962
440.0,0.6155
441.0,0.6383
442.0,0.6848
443.0,0.667
444.0,0.6819
445.0,0.6672
446.0,0.6374
447.0,0.6896
448.0,0.7002
449.0,0.7037
450.0,0.7237
451.0,0.7508
452.0,0.7237
453.0,0.681
454.0,0.7114
455.0,0.7159
456.0,0.7331
457.0,0.7455
458.0,0.7199
459.0,0.7164
460.0,0.7183
461.0,0.735
462.0,0.7411
463.0,0.736
464.0,0.7245
465.0,0.7159
466.0,0.7233
467.0,0.7099
468.0,0.7184
469.0,0.7222
470.0,0.6992
471.0,0.6985
472.0,0.736
473.0,0.7265
474.0,0.7272
475.0,0.7331
476.0,0.7107
477.0,0.7124
478.0,0.7323
479.0,0.7282
480.0,0.7299
481.0,0.744
482.0,0.7484
483.0,0.74
484.0,0.7252
485.0,0.6912
486.0,0.6046
487.0,0.634
488.0,0.6955
489.0,0.6975
490.0,0.7341
491.0,0.7217
492.0,0.6817
493.0,0.7041
494.0,0.7112
495.0,0.7174
496.0,0.7218
497.0,0.733
498.0,0.6987
499.0,0.7075
500.0,0.6866
501.0,0.6737
502.0,0.6636
503.0,0.69
504.0,0.6706
505.0,0.6961
506.0,0.7186
507.0,0.6839
508.0,0.6632
509.0,0.6823
510.0,0.679
511.0,0.6977
512.0,0.7055
513.0,0.6678
514.0,0.6634
515.0,0.6568
516.0,0.6551
517.0,0.5822
518.0,0.6121
519.0,0.642
520.0,0.6653
521.0,0.6715
522.0,0.672
523.0,0.6598
524.0,0.683
525.0,0.6906
526.0,0.6596
527.0,0.6211
528.0,0.6566
529.0,0.6918
530.0,0.6817
531.0,0.6917
532.0,0.6678
533.0,0.6483
534.0,0.6676
535.0,0.6824
536.0,0.6889
537.0,0.6619
538.0,0.6738
539.0,0.6681
540.0,0.6404
541.0,0.6441
542.0,0.664
543.0,0.6574
544.0,0.6684
545.0,0.6664
546.0,0.6689
547.0,0.669
548.0,0.6612
549.0,0.6634
550.0,0.6713
551.0,0.6632
552.0,0.6678
553.0,0.6558
554.0,0.6714
555.0,0.6727
556.0,0.6638
557.0,0.643
558.0,0.6379
559.0,0.6257
560.0,0.6333
561.0,0.6412
562.0,0.6362
563.0,0.6532
564.0,0.635
565.0,0.6293
566.0,0.6198
567.0,0.6311
568.0,0.6245
569.0,0.6077
570.0,0.6078
571.0,0.6046
572.0,0.6179
573.0,0.6242
574.0,0.622
575.0,0.6099
576.0,0.6044
577.0,0.6111
578.0,0.6025
579.0,0.6058
580.0,0.6187
581.0,0.623
582.0,0.6357
583.0,0.6381
584.0,0.6441
585.0,0.6287
586.0,0.6158
587.0,0.6287
588.0,0.611
589.0,0.5366
590.0,0.5615
591.0,0.597
592.0,0.5878
593.0,0.5987
594.0,0.5936
595.0,0.5773
596.0,0.6039
597.0,0.5964
598.0,0.596
599.0,0.5971
600.0,0.599
601.0,0.5948
602.0,0.5909
603.0,0.601
604.0,0.6112
605.0,0.6082
606.0,0.6062
607.0,0.6126
608.0,0.6063
609.0,0.6077
610.0,0.6038
611.0,0.6072
612.0,0.6056
613.0,0.5982
614.0,0.5904
615.0,0.6036
616.0,0.584
617.0,0.5831
618.0,0.6057
619.0,0.5997
620.0,0.6035
621.0,0.6038
622.0,0.5964
623.0,0.587
624.0,0.5772
625.0,0.576
626.0,0.5844
627.0,0.59
628.0,0.5403
629.0,0.5723
630.0,0.5588
631.0,0.575
632.0,0.5688
633.0,0.5877
634.0,0.5832
635.0,0.5928
636.0,0.5857
637.0,0.5958
638.0,0.6024
639.0,0.596
640.0,0.5908
641.0,0.5908
642.0,0.5885
643.0,0.5965
644.0,0.595
645.0,0.5957
646.0,0.5806
647.0,0.5707
648.0,0.5711
649.0,0.5598
650.0,0.5663
651.0,0.5916
652.0,0.563
653.0,0.5839
654.0,0.5778
655.0,0.5543
656.0,0.4926
657.0,0.5061
658.0,0.5684
659.0,0.573
660.0,0.5756
661.0,0.5797
662.0,0.5802
663.0,0.569
664.0,0.5769
665.0,0.5781
666.0,0.5789
667.0,0.5788
668.0,0.5795
669.0,0.5888
670.0,0.5864
671.0,0.5865
672.0,0.5816
673.0,0.5906
674.0,0.5885
675.0,0.5833
676.0,0.5875
677.0,0.5818
678.0,0.5836
679.0,0.5743
680.0,0.579
681.0,0.5753
682.0,0.5746
683.0,0.5735
684.0,0.5706
685.0,0.5757
686.0,0.5721
687.0,0.3341
688.0,0.4123
689.0,0.4145
690.0,0.4421
691.0,0.4737
692.0,0.4979
693.0,0.4932
694.0,0.4896
695.0,0.5156
696.0,0.5165
697.0,0.555
698.0,0.5462
699.0,0.5286
700.0,0.522
701.0,0.5151
702.0,0.5204
703.0,0.5216
704.0,0.5411
705.0,0.5419
706.0,0.5425
707.0,0.5433
708.0,0.5444
709.0,0.5469
710.0,0.546
711.0,0.5459
712.0,0.5451
713.0,0.5388
714.0,0.5411
715.0,0.5222
716.0,0.522
717.0,0.436
718.0,0.3985
719.0,0.3636
720.0,0.3794
721.0,0.4286
722.0,0.501
723.0,0.461
724.0,0.409
725.0,0.4002
726.0,0.4197
727.0,0.4298
728.0,0.3984
729.0,0.4192
730.0,0.4428
731.0,0.4223
732.0,0.4579
733.0,0.4906
734.0,0.504
735.0,0.4926
736.0,0.4919
737.0,0.4938
738.0,0.5057
739.0,0.4957
740.0,0.51
741.0,0.5057
742.0,0.5069
743.0,0.5201
744.0,0.5191
745.0,0.5196
746.0,0.522
747.0,0.5232
748.0,0.5222
749.0,0.5163
750.0,0.516
751.0,0.5108
752.0,0.513
753.0,0.5157
754.0,0.5168
755.0,0.5139
756.0,0.5137
757.0,0.5145
758.0,0.508
759.0,0.495
760.0,0.04698
761.0,0.02021
762.0,0.2061
763.0,0.08207
764.0,0.1407
765.0,0.2059
766.0,0.2735
767.0,0.3679
768.0,0.444
769.0,0.4579
770.0,0.4786
771.0,0.4847
772.0,0.4865
773.0,0.4901
774.0,0.4878
775.0,0.4842
776.0,0.4902
777.0,0.4838
778.0,0.4808
779.0,0.4812
780.0,0.4786
781.0,0.4791
782.0,0.4821
783.0,0.4738
784.0,0.4762
785.0,0.4724
786.0,0.4775
787.0,0.4671
788.0,0.4603
789.0,0.46
790.0,0.4448
791.0,0.4515
792.0,0.4486
793.0,0.4411
794.0,0.4516
795.0,0.4584
796.0,0.4403
797.0,0.4406
798.0,0.4574
799.0,0.4537
800.0,0.4449
801.0,0.4426
802.0,0.4413
803.0,0.4375
804.0,0.4385
805.0,0.4383
806.0,0.4526
807.0,0.4467
808.0,0.4473
809.0,0.4374
810.0,0.4328
811.0,0.4312
812.0,0.4162
813.0,0.4062
814.0,0.3491
815.0,0.3474
816.0,0.3224
817.0,0.329
818.0,0.3148
819.0,0.359
820.0,0.3355
821.0,0.4023
822.0,0.3892
823.0,0.2491
824.0,0.3741
825.0,0.3952
826.0,0.377
827.0,0.4011
828.0,0.3306
829.0,0.3753
830.0,0.3695
831.0,0.371
832.0,0.3579
833.0,0.3854
834.0,0.3686
835.0,0.4119
836.0,0.3897
837.0,0.4133
838.0,0.3981
839.0,0.4075
840.0,0.417
841.0,0.4101
842.0,0.4125
843.0,0.4139
844.0,0.4073
845.0,0.4222
846.0,0.4206
847.0,0.4132
848.0,0.41
849.0,0.3983
850.0,0.3817
851.0,0.4034
852.0,0.4009
853.0,0.3865
854.0,0.3332
855.0,0.3668
856.0,0.4005
857.0,0.4099
858.0,0.4067
859.0,0.4074
860.0,0.4083
861.0,0.406
862.0,0.4125
863.0,0.4223
864.0,0.4012
865.0,0.3977
866.0,0.3576
867.0,0.3732
868.0,0.4062
869.0,0.3978
870.0,0.4091
871.0,0.4036
872.0,0.4022
873.0,0.4014
874.0,0.3966
875.0,0.3886
876.0,0.3926
877.0,0.3966
878.0,0.4007
879.0,0.3946
880.0,0.3862
881.0,0.38
882.0,0.3881
883.0,0.3897
884.0,0.3878
885.0,0.3907
886.0,0.371
887.0,0.376
888.0,0.3809
889.0,0.3864
890.0,0.3818
891.0,0.3818
892.0,0.369
893.0,0.3555
894.0,0.3391
895.0,0.3155
896.0,0.2957
897.0,0.248
898.0,0.2738
899.0,0.2014
900.0,0.2841
901.0,0.2111
902.0,0.257
903.0,0.2563
904.0,0.3365
905.0,0.3231
906.0,0.3007
907.0,0.2349
908.0,0.2412
909.0,0.2653
910.0,0.2271
911.0,0.2472
912.0,0.2595
913.0,0.2301
914.0,0.2296
915.0,0.2487
916.0,0.2091
917.0,0.273
918.0,0.2139
919.0,0.2804
920.0,0.2882
921.0,0.2998
922.0,0.2625
923.0,0.2901
924.0,0.268
925.0,0.2624
926.0,0.2646
927.0,0.3017
928.0,0.2056
929.0,0.1835
930.0,0.1377
931.0,0.131
932.0,0.0877
933.0,0.0682
934.0,0.03114
935.0,0.07228
936.0,0.04102
937.0,0.04128
938.0,0.05227
939.0,0.1268
940.0,0.1574
941.0,0.1125
942.0,0.1338
943.0,0.08315
944.0,0.09234
945.0,0.1173
946.0,0.05325
947.0,0.1161
948.0,0.08457
949.0,0.1618
950.0,0.03584
951.0,0.1604
952.0,0.07791
953.0,0.1061
954.0,0.1363
955.0,0.108
956.0,0.1098
957.0,0.07743
958.0,0.1633
959.0,0.1223
960.0,0.1371
961.0,0.1598
962.0,0.1507
963.0,0.1788
964.0,0.1623
965.0,0.1783
966.0,0.1774
967.0,0.176
968.0,0.2553
969.0,0.2643
970.0,0.2406
971.0,0.2839
972.0,0.2699
973.0,0.2263
974.0,0.2139
975.0,0.2251
976.0,0.209
977.0,0.2475
978.0,0.2311
979.0,0.2446
980.0,0.2285
981.0,0.2826
982.0,0.267
983.0,0.2546
984.0,0.2949
985.0,0.2659
986.0,0.3025
987.0,0.2938
988.0,0.2934
989.0,0.303
990.0,0.2915
991.0,0.3037
992.0,0.3057
993.0,0.2962
994.0,0.3059
995.0,0.3059
996.0,0.3041
997.0,0.3048
998.0,0.3032
999.0,0.3022
1000.0,0.2994
1001.0,0.3039
1002.0,0.2929
1003.0,0.2983
1004.0,0.2904
1005.0,0.2807
1006.0,0.2912
1007.0,0.2976
1008.0,0.2955
1009.0,0.2934
1010.0,0.2919
1011.0,0.2961
1012.0,0.2931
1013.0,0.2956
1014.0,0.2935
1015.0,0.2915
1016.0,0.2901
1017.0,0.2907
1018.0,0.29
1019.0,0.2828
1020.0,0.2883
1021.0,0.2881
1022.0,0.2855
1023.0,0.2884
1024.0,0.2836
1025.0,0.2886
1026.0,0.2871
1027.0,0.2865
1028.0,0.2858
1029.0,0.2823
1030.0,0.2846
1031.0,0.2833
1032.0,0.2826
1033.0,0.2783
1034.0,0.2784
1035.0,0.2792
1036.0,0.2806
1037.0,0.2761
1038.0,0.2772
1039.0,0.277
1040.0,0.2759
1041.0,0.2769
1042.0,0.2749
1043.0,0.274
1044.0,0.2749
1045.0,0.2711
1046.0,0.2681
1047.0,0.2704
1048.0,0.2718
1049.0,0.2708
1050.0,0.2694
1051.0,0.2689
1052.0,0.2677
1053.0,0.2655
1054.0,0.2659
1055.0,0.2659
1056.0,0.2648
1057.0,0.2639
1058.0,0.2573
1059.0,0.2574
1060.0,0.2569
1061.0,0.2565
1062.0,0.2577
1063.0,0.255
1064.0,0.2581
1065.0,0.2558
1066.0,0.2511
1067.0,0.2542
1068.0,0.2484
1069.0,0.2409
1070.0,0.2489
1071.0,0.2536
1072.0,0.25
1073.0,0.2465
1074.0,0.2539
1075.0,0.2385
1076.0,0.2536
1077.0,0.2475
1078.0,0.2422
1079.0,0.25
1080.0,0.2438
1081.0,0.2346
1082.0,0.2407
1083.0,0.242
1084.0,0.2335
1085.0,0.2446
1086.0,0.2194
1087.0,0.2291
1088.0,0.2413
1089.0,0.2313
1090.0,0.2248
1091.0,0.2398
1092.0,0.2397
1093.0,0.1962
1094.0,0.2185
1095.0,0.2051
1096.0,0.1944
1097.0,0.2342
1098.0,0.1904
1099.0,0.1997
1100.0,0.1828
1101.0,0.186
1102.0,0.1757
1103.0,0.1727
1104.0,0.1731
1105.0,0.1945
1106.0,0.1374
1107.0,0.1826
1108.0,0.148
1109.0,0.1496
1110.0,0.1798
1111.0,0.1131
1112.0,0.1489
1113.0,0.086
1114.0,0.09672
1115.0,0.07966
1116.0,0.05873
1117.0,0.01696
1118.0,0.06529
1119.0,0.02835
1120.0,0.03522
1121.0,0.049
1122.0,0.01734
1123.0,0.03201
1124.0,0.02696
1125.0,0.03617
1126.0,0.00949
1127.0,0.0411
1128.0,0.02106
1129.0,0.02274
1130.0,0.01403
1131.0,0.08724
1132.0,0.06664
1133.0,0.03721
1134.0,0.007201
1135.0,0.00285
1136.0,0.02934
1137.0,0.0838
1138.0,0.05815
1139.0,0.09732
1140.0,0.07724
1141.0,0.05537
1142.0,0.06569
1143.0,0.09782
1144.0,0.0294
1145.0,0.03594
1146.0,0.0387
1147.0,0.01052
1148.0,0.08423
1149.0,0.06423
1150.0,0.03241
1151.0,0.05767
1152.0,0.07461
1153.0,0.07556
1154.0,0.03476
1155.0,0.1014
1156.0,0.08913
1157.0,0.104
1158.0,0.1027
1159.0,0.1133
1160.0,0.09446
1161.0,0.1223
1162.0,0.1224
1163.0,0.1757
1164.0,0.1469
1165.0,0.1349
1166.0,0.1369
1167.0,0.1509
1168.0,0.1517
1169.0,0.1564
1170.0,0.1731
1171.0,0.1686
1172.0,0.1737
1173.0,0.1728
1174.0,0.1161
1175.0,0.1705
1176.0,0.1916
1177.0,0.1811
1178.0,0.1305
1179.0,0.1932
1180.0,0.168
1181.0,0.1736
1182.0,0.1137
1183.0,0.1719
1184.0,0.159
1185.0,0.1516
1186.0,0.1859
1187.0,0.1751
1188.0,0.1146
1189.0,0.1628
1190.0,0.182
1191.0,0.1691
1192.0,0.1849
1193.0,0.176
1194.0,0.1822
1195.0,0.1698
1196.0,0.162
1197.0,0.1835
1198.0,0.1664
1199.0,0.1362
1200.0,0.1736
1201.0,0.1655
1202.0,0.166
1203.0,0.1639
1204.0,0.1409
1205.0,0.1714
1206.0,0.1921
1207.0,0.1649
1208.0,0.1639
1209.0,0.1676
1210.0,0.1759
1211.0,0.1655
1212.0,0.1608
1213.0,0.1844
1214.0,0.1657
1215.0,0.1622
1216.0,0.1841
1217.0,0.1782
1218.0,0.1825
1219.0,0.1797
1220.0,0.1828
1221.0,0.1852
1222.0,0.1799
1223.0,0.1778
1224.0,0.1757
1225.0,0.1839
1226.0,0.1859
1227.0,0.1687
1228.0,0.1874
1229.0,0.1859
1230.0,0.1822
1231.0,0.1892
1232.0,0.188
1233.0,0.1792
1234.0,0.1895
1235.0,0.188
1236.0,0.1896
1237.0,0.186
1238.0,0.189
1239.0,0.1865
1240.0,0.1874
1241.0,0.1859
1242.0,0.186
1243.0,0.1845
1244.0,0.1857
1245.0,0.1866
1246.0,0.1855
1247.0,0.1846
1248.0,0.1842
1249.0,0.185
1250.0,0.1837
1251.0,0.181
1252.0,0.1815
1253.0,0.1792
1254.0,0.1768
1255.0,0.1811
1256.0,0.1745
1257.0,0.1732
1258.0,0.1777
1259.0,0.1689
1260.0,0.1701
1261.0,0.1576
1262.0,0.1514
1263.0,0.1516
1264.0,0.1365
1265.0,0.1507
1266.0,0.1429
1267.0,0.1469
1268.0,0.137
1269.0,0.07157
1270.0,0.1458
1271.0,0.1575
1272.0,0.1583
1273.0,0.1563
1274.0,0.1572
1275.0,0.1601
1276.0,0.1622
1277.0,0.164
1278.0,0.1683
1279.0,0.1667
1280.0,0.1647
1281.0,0.1577
1282.0,0.1528
1283.0,0.1644
1284.0,0.1681
1285.0,0.1694
1286.0,0.1722
1287.0,0.1686
1288.0,0.1688
1289.0,0.1617
1290.0,0.1675
1291.0,0.1701
1292.0,0.1565
1293.0,0.166
1294.0,0.1647
1295.0,0.1629
1296.0,0.1535
1297.0,0.1436
1298.0,0.1579
1299.0,0.1665
1300.0,0.1356
1301.0,0.1408
1302.0,0.1574
1303.0,0.1344
1304.0,0.1097
1305.0,0.1539
1306.0,0.1535
1307.0,0.1139
1308.0,0.1355
1309.0,0.1516
1310.0,0.1113
1311.0,0.1287
1312.0,0.1245
1313.0,0.121
1314.0,0.1066
1315.0,0.104
1316.0,0.1257
1317.0,0.1185
1318.0,0.1309
1319.0,0.09632
1320.0,0.09459
1321.0,0.1122
1322.0,0.1123
1323.0,0.07966
1324.0,0.09469
1325.0,0.1234
1326.0,0.1029
1327.0,0.0973
1328.0,0.08226
1329.0,0.05758
1330.0,0.0771
1331.0,0.04189
1332.0,0.04471
1333.0,0.06316
1334.0,0.05628
1335.0,0.07909
1336.0,0.05994
1337.0,0.05203
1338.0,0.05612
1339.0,0.05654
1340.0,0.05635
1341.0,0.05185
1342.0,0.05481
1343.0,0.03163
1344.0,0.01943
1345.0,0.0279
1346.0,0.01091
1347.0,0.01059
1348.0,0.0004073
1349.0,0.001674
1350.0,0.001914
1351.0,0.0002873
1352.0,4.292e-05
1353.0,1.32e-06
1354.0,6.627e-06
1355.0,1.711e-08
1356.0,6.305e-07
1357.0,9.629e-07
1358.0,2.121e-08
1359.0,1.153e-09
1360.0,7.131e-09
1361.0,1.852e-12
1362.0,3.611e-15
1363.0,6.79e-09
1364.0,2.945e-09
1365.0,9.391e-16
1366.0,3.671e-08
1367.0,1.914e-08
1368.0,6.212e-18
1369.0,1.08e-09
1370.0,3.79e-10
1371.0,1.545e-11
1372.0,1.077e-08
1373.0,3.777e-07
1374.0,2.633e-06
1375.0,4.416e-06
1376.0,6.121e-06
1377.0,2.593e-06
1378.0,2.835e-05
1379.0,1.098e-06
1380.0,1.185e-06
1381.0,2.596e-08
1382.0,8.685e-09
1383.0,1.031e-10
1384.0,1.042e-09
1385.0,1.285e-08
1386.0,5.913e-09
1387.0,1.985e-06
1388.0,4.526e-08
1389.0,1.116e-05
1390.0,9.259e-06
1391.0,5.879e-06
1392.0,3.582e-07
1393.0,2.326e-06
1394.0,5.813e-07
1395.0,2.989e-09
1396.0,3.037e-12
1397.0,7.922e-07
1398.0,2.985e-05
1399.0,1.95e-05
1400.0,9.497e-13
1401.0,6.17e-12
1402.0,0.0001033
1403.0,0.0001138
1404.0,3.259e-05
1405.0,1.061e-09
1406.0,6.782e-05
1407.0,7.682e-06
1408.0,5.803e-05
1409.0,1.377e-05
1410.0,1.48e-05
1411.0,0.0001029
1412.0,0.0001642
1413.0,0.002611
1414.0,1.231e-05
1415.0,5.084e-06
1416.0,0.005924
1417.0,0.001348
1418.0,0.001381
1419.0,0.0002005
1420.0,0.0008349
1421.0,0.0009631
1422.0,0.007781
1423.0,0.001412
1424.0,0.002805
1425.0,0.003816
1426.0,0.004995
1427.0,0.01059
1428.0,0.000362
1429.0,0.00712
1430.0,0.01428
1431.0,0.01624
1432.0,0.0002793
1433.0,0.009622
1434.0,0.004556
1435.0,0.003472
1436.0,0.008306
1437.0,0.006437
