interpolation:linear
wavelength,value
280.0,1.716e-21
280.5,5.458000000000001e-20
281.0,2.893e-19
281.5,4.529e-19
282.0,1.016e-18
282.5,2.582e-18
283.0,8.216e-18
283.5,1.338e-17
284.0,2.167e-16
284.5,6.26e-16
285.0,1.332e-15
285.5,6.389e-15
286.0,2.549e-14
286.5,1.123e-13
287.0,3.179e-13
287.5,1.205e-12
288.0,3.46e-12
288.5,1.111e-11
289.0,3.075e-11
289.5,9.543e-11
290.0,2.691e-10
290.5,5.545e-10
291.0,1.201e-09
291.5,3.476e-09
292.0,7.096e-09
292.5,1.046e-08
293.0,2.383e-08
293.5,6.278e-08
294.0,1.037e-07
294.5,1.349e-07
295.0,2.403e-07
295.5,5.869e-07
296.0,1.123e-06
296.5,1.634e-06
297.0,2.293e-06
297.5,6.55e-06
298.0,1.097e-05
298.5,1.163e-05
299.0,2.708e-05
299.5,4.998e-05
300.0,5.871e-05
300.5,9.153e-05
301.0,0.0001894
301.5,0.0003495
302.0,0.0003271
302.5,0.0006521
303.0,0.001203
303.5,0.001543
304.0,0.00147
304.5,0.002271
305.0,0.00361
305.5,0.004258
306.0,0.004169
306.5,0.005289
307.0,0.008169
307.5,0.01128
308.0,0.01199
308.5,0.01442
309.0,0.01433
309.5,0.01676
310.0,0.01701
310.5,0.02769
311.0,0.03505
311.5,0.03396
312.0,0.03456
312.5,0.04255
313.0,0.04644
313.5,0.04486
314.0,0.05686
314.5,0.05134
315.0,0.06769
315.5,0.05616
316.0,0.04976
316.5,0.07234
317.0,0.08982
317.5,0.09317
318.0,0.0733
318.5,0.09245
319.0,0.1106
319.5,0.08905
320.0,0.1074
320.5,0.1366
321.0,0.1233
321.5,0.1184
322.0,0.1244
322.5,0.1083
323.0,0.109
323.5,0.135
324.0,0.1579
324.5,0.1598
325.0,0.1374
325.5,0.1781
326.0,0.2182
326.5,0.2196
327.0,0.2185
327.5,0.2107
328.0,0.1865
328.5,0.1975
329.0,0.2379
329.5,0.2706
330.0,0.2726
330.5,0.2173
331.0,0.2212
331.5,0.2256
332.0,0.2449
332.5,0.2428
333.0,0.2419
333.5,0.2182
334.0,0.2235
334.5,0.259
335.0,0.244
335.5,0.2851
336.0,0.1973
336.5,0.2308
337.0,0.1891
337.5,0.2352
338.0,0.2304
338.5,0.2662
339.0,0.2636
339.5,0.2536
340.0,0.298
340.5,0.2688
341.0,0.2622
341.5,0.2409
342.0,0.2881
342.5,0.2696
343.0,0.2965
343.5,0.2793
344.0,0.2064
344.5,0.2086
345.0,0.2762
345.5,0.2822
346.0,0.2399
346.5,0.2718
347.0,0.2918
347.5,0.236
348.0,0.2693
348.5,0.2692
349.0,0.2499
349.5,0.2475
350.0,0.3063
350.5,0.3232
351.0,0.2888
351.5,0.2806
352.0,0.3016
352.5,0.2355
353.0,0.2968
353.5,0.3175
354.0,0.3297
354.5,0.3344
355.0,0.3334
355.5,0.3014
356.0,0.3154
356.5,0.2694
357.0,0.2227
357.5,0.2727
358.0,0.2162
358.5,0.1848
359.0,0.2585
359.5,0.3295
360.0,0.3494
360.5,0.2793
361.0,0.2548
361.5,0.2935
362.0,0.254
362.5,0.3517
363.0,0.3161
363.5,0.2913
364.0,0.3564
364.5,0.3048
365.0,0.3105
365.5,0.3899
366.0,0.4133
366.5,0.3885
367.0,0.3785
367.5,0.3929
368.0,0.344
368.5,0.3472
369.0,0.3751
369.5,0.4
370.0,0.4266
370.5,0.3312
371.0,0.3541
371.5,0.4431
372.0,0.2942
372.5,0.3529
373.0,0.3591
373.5,0.2338
374.0,0.3398
374.5,0.2815
375.0,0.2738
375.5,0.4088
376.0,0.339
376.5,0.3514
377.0,0.3722
377.5,0.4357
378.0,0.4724
378.5,0.4466
379.0,0.3686
379.5,0.3368
380.0,0.3503
380.5,0.4245
381.0,0.4256
381.5,0.3375
382.0,0.2999
382.5,0.2558
383.0,0.2369
383.5,0.2283
384.0,0.2519
384.5,0.3707
385.0,0.3677
385.5,0.3426
386.0,0.2936
386.5,0.3858
387.0,0.3207
387.5,0.3603
388.0,0.3328
388.5,0.3291
389.0,0.3554
389.5,0.4306
390.0,0.4323
390.5,0.398
391.0,0.4686
391.5,0.4781
392.0,0.4028
392.5,0.3608
393.0,0.2009
393.5,0.1461
394.0,0.2973
394.5,0.3782
395.0,0.4616
395.5,0.469
396.0,0.4068
396.5,0.2379
397.0,0.1786
397.5,0.3633
398.0,0.5089
398.5,0.5262
399.0,0.5701
399.5,0.5684
400.0,0.5903
401.0,0.5979
402.0,0.6313
403.0,0.6001
404.0,0.5912
405.0,0.5914
406.0,0.5823
407.0,0.5733
408.0,0.5959
409.0,0.6381
410.0,0.5579
411.0,0.6047
412.0,0.6499
413.0,0.634
414.0,0.6422
415.0,0.6443
416.0,0.656
417.0,0.6402
418.0,0.6286
419.0,0.6372
420.0,0.6347
421.0,0.6643
422.0,0.6317
423.0,0.6174
424.0,0.6532
425.0,0.6523
426.0,0.6359
427.0,0.6242
428.0,0.6083
429.0,0.5766
430.0,0.5048
431.0,0.5004
432.0,0.6465
433.0,0.6504
434.0,0.6041
435.0,0.631
436.0,0.7114
437.0,0.7023
438.0,0.6398
439.0,0.6616
440.0,0.6829
441.0,0.708
442.0,0.7596
443.0,0.7398
444.0,0.7562
445.0,0.7399
446.0,0.7066
447.0,0.7644
448.0,0.7762
449.0,0.7798
450.0,0.8019
451.0,0.8319
452.0,0.8017
453.0,0.7543
454.0,0.7878
455.0,0.7928
456.0,0.8118
457.0,0.8255
458.0,0.7972
459.0,0.7933
460.0,0.7954
461.0,0.8138
462.0,0.8204
463.0,0.8148
464.0,0.8018
465.0,0.7921
466.0,0.8001
467.0,0.7854
468.0,0.7948
469.0,0.799
470.0,0.7735
471.0,0.7727
472.0,0.8142
473.0,0.8036
474.0,0.8046
475.0,0.8112
476.0,0.7866
477.0,0.7886
478.0,0.8106
479.0,0.806
480.0,0.8077
481.0,0.8232
482.0,0.8279
483.0,0.8183
484.0,0.8018
485.0,0.7641
486.0,0.6682
487.0,0.7006
488.0,0.7686
489.0,0.7709
490.0,0.8112
491.0,0.7974
492.0,0.7531
493.0,0.7778
494.0,0.7857
495.0,0.7925
496.0,0.7974
497.0,0.8097
498.0,0.7719
499.0,0.7816
500.0,0.7587
501.0,0.7445
502.0,0.7336
503.0,0.763
504.0,0.7423
505.0,0.77
506.0,0.7949
507.0,0.7564
508.0,0.7333
509.0,0.7542
510.0,0.7505
511.0,0.7709
512.0,0.7795
513.0,0.7378
514.0,0.7329
515.0,0.7256
516.0,0.7238
517.0,0.6432
518.0,0.6762
519.0,0.7092
520.0,0.735
521.0,0.7419
522.0,0.7425
523.0,0.729
524.0,0.7549
525.0,0.7634
526.0,0.7292
527.0,0.6868
528.0,0.7262
529.0,0.7653
530.0,0.7542
531.0,0.7652
532.0,0.7389
533.0,0.7173
534.0,0.7386
535.0,0.7549
536.0,0.7619
537.0,0.732
538.0,0.7451
539.0,0.7388
540.0,0.7082
541.0,0.7125
542.0,0.7346
543.0,0.7272
544.0,0.7395
545.0,0.7373
546.0,0.7402
547.0,0.7402
548.0,0.7315
549.0,0.7338
550.0,0.7425
551.0,0.7336
552.0,0.7387
553.0,0.7254
554.0,0.7427
555.0,0.7441
556.0,0.7344
557.0,0.7114
558.0,0.7059
559.0,0.6925
560.0,0.701
561.0,0.7099
562.0,0.7045
563.0,0.7234
564.0,0.7034
565.0,0.6972
566.0,0.6867
567.0,0.6995
568.0,0.6925
569.0,0.6746
570.0,0.6746
571.0,0.6709
572.0,0.6861
573.0,0.6932
574.0,0.6908
575.0,0.6776
576.0,0.6714
577.0,0.6789
578.0,0.6691
579.0,0.6724
580.0,0.6862
581.0,0.6906
582.0,0.7043
583.0,0.7066
584.0,0.7132
585.0,0.696
586.0,0.6817
587.0,0.6962
588.0,0.6774
589.0,0.5967
590.0,0.6243
591.0,0.6627
592.0,0.6531
593.0,0.6644
594.0,0.6591
595.0,0.6415
596.0,0.6697
597.0,0.6617
598.0,0.6609
599.0,0.6619
600.0,0.6636
601.0,0.6587
602.0,0.6543
603.0,0.6654
604.0,0.6766
605.0,0.6733
606.0,0.6708
607.0,0.6778
608.0,0.6706
609.0,0.672
610.0,0.6675
611.0,0.6712
612.0,0.6694
613.0,0.6612
614.0,0.6524
615.0,0.6669
616.0,0.6451
617.0,0.644
618.0,0.6689
619.0,0.6622
620.0,0.6664
621.0,0.6668
622.0,0.6588
623.0,0.6485
624.0,0.6376
625.0,0.6362
626.0,0.6455
627.0,0.6521
628.0,0.601
629.0,0.6339
630.0,0.619
631.0,0.6357
632.0,0.6286
633.0,0.6488
634.0,0.6434
635.0,0.6539
636.0,0.6457
637.0,0.6567
638.0,0.6636
639.0,0.6565
640.0,0.6505
641.0,0.6504
642.0,0.6478
643.0,0.6565
644.0,0.6547
645.0,0.6556
646.0,0.6393
647.0,0.6296
648.0,0.63
649.0,0.6177
650.0,0.6235
651.0,0.651
652.0,0.6209
653.0,0.6425
654.0,0.6356
655.0,0.6105
656.0,0.5421
657.0,0.5568
658.0,0.6249
659.0,0.6298
660.0,0.6326
661.0,0.6371
662.0,0.6378
663.0,0.6254
664.0,0.6337
665.0,0.6348
666.0,0.6355
667.0,0.6353
668.0,0.6359
669.0,0.6459
670.0,0.6432
671.0,0.6433
672.0,0.6379
673.0,0.6476
674.0,0.6453
675.0,0.6396
676.0,0.6441
677.0,0.6378
678.0,0.6397
679.0,0.6295
680.0,0.6346
681.0,0.6304
682.0,0.6296
683.0,0.6285
684.0,0.6253
685.0,0.6308
686.0,0.6269
687.0,0.3821
688.0,0.4635
689.0,0.4657
690.0,0.4939
691.0,0.5261
692.0,0.5504
693.0,0.5454
694.0,0.5412
695.0,0.5678
696.0,0.5687
697.0,0.6087
698.0,0.5991
699.0,0.5814
700.0,0.5742
701.0,0.5672
702.0,0.5724
703.0,0.5737
704.0,0.5941
705.0,0.595
706.0,0.5952
707.0,0.596
708.0,0.5972
709.0,0.5994
710.0,0.5987
711.0,0.5983
712.0,0.5972
713.0,0.5906
714.0,0.5929
715.0,0.5729
716.0,0.5728
717.0,0.4844
718.0,0.4433
719.0,0.405
720.0,0.4231
721.0,0.4745
722.0,0.5508
723.0,0.5087
724.0,0.4535
725.0,0.4446
726.0,0.466
727.0,0.4758
728.0,0.4429
729.0,0.4639
730.0,0.4904
731.0,0.4681
732.0,0.5054
733.0,0.5394
734.0,0.5535
735.0,0.5413
736.0,0.5406
737.0,0.5427
738.0,0.5542
739.0,0.5433
740.0,0.5584
741.0,0.5534
742.0,0.5545
743.0,0.5688
744.0,0.5676
745.0,0.568
746.0,0.5706
747.0,0.5719
748.0,0.5707
749.0,0.5642
750.0,0.5639
751.0,0.5582
752.0,0.5607
753.0,0.5636
754.0,0.5648
755.0,0.5616
756.0,0.5614
757.0,0.5622
758.0,0.5551
759.0,0.5419
760.0,0.06172
761.0,0.02825
762.0,0.2413
763.0,0.1033
764.0,0.1699
765.0,0.2412
766.0,0.3123
767.0,0.4115
768.0,0.4894
769.0,0.5031
770.0,0.524
771.0,0.5299
772.0,0.5316
773.0,0.5354
774.0,0.5329
775.0,0.529
776.0,0.5355
777.0,0.5284
778.0,0.5252
779.0,0.5256
780.0,0.5227
781.0,0.5233
782.0,0.5266
783.0,0.5175
784.0,0.52
785.0,0.516
786.0,0.5216
787.0,0.511
788.0,0.5039
789.0,0.5036
790.0,0.488
791.0,0.4943
792.0,0.491
793.0,0.4828
794.0,0.4933
795.0,0.5011
796.0,0.4827
797.0,0.4831
798.0,0.5001
799.0,0.4964
800.0,0.487
801.0,0.4848
802.0,0.4835
803.0,0.4794
804.0,0.4804
805.0,0.4797
806.0,0.4947
807.0,0.4884
808.0,0.489
809.0,0.4787
810.0,0.474
811.0,0.473
812.0,0.4575
813.0,0.4469
814.0,0.3869
815.0,0.3848
816.0,0.3574
817.0,0.3646
818.0,0.3495
819.0,0.3961
820.0,0.371
821.0,0.4414
822.0,0.4275
823.0,0.2788
824.0,0.4123
825.0,0.4336
826.0,0.4147
827.0,0.4402
828.0,0.366
829.0,0.4127
830.0,0.4066
831.0,0.4082
832.0,0.3944
833.0,0.4231
834.0,0.4057
835.0,0.451
836.0,0.4283
837.0,0.4525
838.0,0.4367
839.0,0.446
840.0,0.4562
841.0,0.449
842.0,0.4511
843.0,0.452
844.0,0.4451
845.0,0.461
846.0,0.4592
847.0,0.451
848.0,0.4477
849.0,0.4349
850.0,0.4168
851.0,0.4407
852.0,0.4379
853.0,0.4219
854.0,0.3639
855.0,0.4004
856.0,0.4373
857.0,0.4474
858.0,0.4439
859.0,0.4446
860.0,0.4455
861.0,0.443
862.0,0.4501
863.0,0.4607
864.0,0.4377
865.0,0.4339
866.0,0.3902
867.0,0.4072
868.0,0.4431
869.0,0.434
870.0,0.4463
871.0,0.4403
872.0,0.4387
873.0,0.4379
874.0,0.4327
875.0,0.4239
876.0,0.4283
877.0,0.4326
878.0,0.4372
879.0,0.4305
880.0,0.4213
881.0,0.4147
882.0,0.4236
883.0,0.4252
884.0,0.4231
885.0,0.4263
886.0,0.4053
887.0,0.4104
888.0,0.4159
889.0,0.4216
890.0,0.417
891.0,0.4168
892.0,0.4034
893.0,0.3892
894.0,0.3725
895.0,0.3481
896.0,0.3267
897.0,0.2759
898.0,0.3036
899.0,0.2254
900.0,0.3138
901.0,0.2362
902.0,0.2847
903.0,0.285
904.0,0.3697
905.0,0.3555
906.0,0.3314
907.0,0.2618
908.0,0.2682
909.0,0.2938
910.0,0.2538
911.0,0.2746
912.0,0.288
913.0,0.2572
914.0,0.2562
915.0,0.2777
916.0,0.2338
917.0,0.303
918.0,0.2394
919.0,0.3104
920.0,0.3174
921.0,0.3303
922.0,0.2908
923.0,0.3194
924.0,0.2973
925.0,0.291
926.0,0.2937
927.0,0.3332
928.0,0.2318
929.0,0.2082
930.0,0.1582
931.0,0.1505
932.0,0.1028
933.0,0.08091
934.0,0.03889
935.0,0.08496
936.0,0.0495
937.0,0.04986
938.0,0.06266
939.0,0.1457
940.0,0.1793
941.0,0.13
942.0,0.1536
943.0,0.09694
944.0,0.106
945.0,0.1352
946.0,0.06331
947.0,0.1343
948.0,0.098
949.0,0.1851
950.0,0.04356
951.0,0.1833
952.0,0.0914
953.0,0.1227
954.0,0.1557
955.0,0.1247
956.0,0.125
957.0,0.09098
958.0,0.1838
959.0,0.1399
960.0,0.1568
961.0,0.1808
962.0,0.1706
963.0,0.201
964.0,0.1828
965.0,0.2004
966.0,0.1996
967.0,0.1982
968.0,0.2815
969.0,0.2922
970.0,0.2666
971.0,0.3121
972.0,0.2972
973.0,0.2517
974.0,0.2381
975.0,0.2497
976.0,0.2333
977.0,0.2732
978.0,0.2563
979.0,0.2706
980.0,0.2532
981.0,0.3105
982.0,0.2943
983.0,0.2811
984.0,0.323
985.0,0.2932
986.0,0.3305
987.0,0.3218
988.0,0.3214
989.0,0.3307
990.0,0.3194
991.0,0.3315
992.0,0.3336
993.0,0.324
994.0,0.3337
995.0,0.3336
996.0,0.3318
997.0,0.3324
998.0,0.3308
999.0,0.3296
1000.0,0.3268
1001.0,0.3315
1002.0,0.3203
1003.0,0.3255
1004.0,0.317
1005.0,0.3061
1006.0,0.3177
1007.0,0.3246
1008.0,0.3225
1009.0,0.3204
1010.0,0.3188
1011.0,0.323
1012.0,0.3198
1013.0,0.3224
1014.0,0.3201
1015.0,0.3179
1016.0,0.3164
1017.0,0.3172
1018.0,0.3162
1019.0,0.3087
1020.0,0.3144
1021.0,0.3141
1022.0,0.3114
1023.0,0.3147
1024.0,0.3098
1025.0,0.3147
1026.0,0.3132
1027.0,0.3125
1028.0,0.3118
1029.0,0.308
1030.0,0.3104
1031.0,0.309
1032.0,0.3082
1033.0,0.3036
1034.0,0.3036
1035.0,0.3046
1036.0,0.3061
1037.0,0.3011
1038.0,0.3024
1039.0,0.3022
1040.0,0.301
1041.0,0.3021
1042.0,0.3
1043.0,0.299
1044.0,0.3
1045.0,0.2959
1046.0,0.2925
1047.0,0.2951
1048.0,0.2967
1049.0,0.2955
1050.0,0.2941
1051.0,0.2936
1052.0,0.2923
1053.0,0.2899
1054.0,0.2904
1055.0,0.2905
1056.0,0.2893
1057.0,0.2883
1058.0,0.2811
1059.0,0.2813
1060.0,0.2808
1061.0,0.2804
1062.0,0.2817
1063.0,0.2789
1064.0,0.2822
1065.0,0.2799
1066.0,0.2746
1067.0,0.278
1068.0,0.2718
1069.0,0.2635
1070.0,0.2723
1071.0,0.2772
1072.0,0.2735
1073.0,0.2696
1074.0,0.2774
1075.0,0.2614
1076.0,0.2771
1077.0,0.2709
1078.0,0.2653
1079.0,0.273
1080.0,0.2668
1081.0,0.2572
1082.0,0.2631
1083.0,0.2644
1084.0,0.256
1085.0,0.2676
1086.0,0.2411
1087.0,0.251
1088.0,0.2637
1089.0,0.2536
1090.0,0.2468
1091.0,0.2623
1092.0,0.2621
1093.0,0.2165
1094.0,0.2391
1095.0,0.2261
1096.0,0.2149
1097.0,0.2561
1098.0,0.2108
1099.0,0.2208
1100.0,0.2029
1101.0,0.2062
1102.0,0.1954
1103.0,0.1924
1104.0,0.1927
1105.0,0.2152
1106.0,0.1553
1107.0,0.2026
1108.0,0.1662
1109.0,0.1676
1110.0,0.1999
1111.0,0.1283
1112.0,0.1667
1113.0,0.09877
1114.0,0.111
1115.0,0.09158
1116.0,0.06894
1117.0,0.02121
1118.0,0.07628
1119.0,0.03431
1120.0,0.04282
1121.0,0.05886
1122.0,0.02184
1123.0,0.03885
1124.0,0.03274
1125.0,0.04359
1126.0,0.01236
1127.0,0.04944
1128.0,0.02642
1129.0,0.02841
1130.0,0.01776
1131.0,0.1019
1132.0,0.07835
1133.0,0.04528
1134.0,0.009432
1135.0,0.003671
1136.0,0.03626
1137.0,0.09845
1138.0,0.06857
1139.0,0.1113
1140.0,0.08951
1141.0,0.06525
1142.0,0.07679
1143.0,0.1129
1144.0,0.03529
1145.0,0.04372
1146.0,0.0471
1147.0,0.01373
1148.0,0.09737
1149.0,0.07514
1150.0,0.03857
1151.0,0.068
1152.0,0.08682
1153.0,0.08704
1154.0,0.04221
1155.0,0.1159
1156.0,0.1026
1157.0,0.1183
1158.0,0.117
1159.0,0.1283
1160.0,0.1075
1161.0,0.1374
1162.0,0.1377
1163.0,0.1944
1164.0,0.1637
1165.0,0.1514
1166.0,0.1527
1167.0,0.1678
1168.0,0.169
1169.0,0.1739
1170.0,0.1915
1171.0,0.1866
1172.0,0.1915
1173.0,0.1912
1174.0,0.1305
1175.0,0.188
1176.0,0.21
1177.0,0.1994
1178.0,0.1453
1179.0,0.2117
1180.0,0.1855
1181.0,0.1916
1182.0,0.1273
1183.0,0.1894
1184.0,0.1759
1185.0,0.1682
1186.0,0.2044
1187.0,0.1931
1188.0,0.1287
1189.0,0.1797
1190.0,0.2
1191.0,0.187
1192.0,0.2031
1193.0,0.1936
1194.0,0.2002
1195.0,0.1874
1196.0,0.1793
1197.0,0.2012
1198.0,0.1829
1199.0,0.1514
1200.0,0.191
1201.0,0.1828
1202.0,0.1828
1203.0,0.1808
1204.0,0.1561
1205.0,0.1883
1206.0,0.2101
1207.0,0.1818
1208.0,0.1802
1209.0,0.1842
1210.0,0.1928
1211.0,0.1821
1212.0,0.1778
1213.0,0.2022
1214.0,0.183
1215.0,0.1792
1216.0,0.2017
1217.0,0.1956
1218.0,0.2
1219.0,0.1971
1220.0,0.2003
1221.0,0.2027
1222.0,0.1971
1223.0,0.1949
1224.0,0.193
1225.0,0.2013
1226.0,0.2033
1227.0,0.1854
1228.0,0.2047
1229.0,0.2033
1230.0,0.1994
1231.0,0.2065
1232.0,0.2052
1233.0,0.1964
1234.0,0.2067
1235.0,0.2051
1236.0,0.2068
1237.0,0.2031
1238.0,0.2061
1239.0,0.2034
1240.0,0.2043
1241.0,0.2029
1242.0,0.2028
1243.0,0.2012
1244.0,0.2025
1245.0,0.2035
1246.0,0.2023
1247.0,0.2014
1248.0,0.201
1249.0,0.2018
1250.0,0.2005
1251.0,0.1977
1252.0,0.198
1253.0,0.1958
1254.0,0.1934
1255.0,0.1977
1256.0,0.191
1257.0,0.1897
1258.0,0.1942
1259.0,0.1854
1260.0,0.1865
1261.0,0.1739
1262.0,0.1675
1263.0,0.1678
1264.0,0.1522
1265.0,0.1667
1266.0,0.1589
1267.0,0.1628
1268.0,0.1526
1269.0,0.08409
1270.0,0.1617
1271.0,0.1736
1272.0,0.1744
1273.0,0.1723
1274.0,0.1732
1275.0,0.1761
1276.0,0.1782
1277.0,0.18
1278.0,0.1843
1279.0,0.1825
1280.0,0.1803
1281.0,0.1725
1282.0,0.1668
1283.0,0.1796
1284.0,0.1837
1285.0,0.185
1286.0,0.1879
1287.0,0.1843
1288.0,0.1845
1289.0,0.1773
1290.0,0.1829
1291.0,0.1857
1292.0,0.172
1293.0,0.1815
1294.0,0.1801
1295.0,0.1785
1296.0,0.1688
1297.0,0.1585
1298.0,0.1731
1299.0,0.182
1300.0,0.1499
1301.0,0.1553
1302.0,0.1726
1303.0,0.1484
1304.0,0.1227
1305.0,0.1688
1306.0,0.1685
1307.0,0.1267
1308.0,0.1493
1309.0,0.1667
1310.0,0.1241
1311.0,0.1422
1312.0,0.1377
1313.0,0.1343
1314.0,0.1188
1315.0,0.1164
1316.0,0.1392
1317.0,0.1314
1318.0,0.1445
1319.0,0.1082
1320.0,0.1059
1321.0,0.1249
1322.0,0.1253
1323.0,0.09046
1324.0,0.1063
1325.0,0.1369
1326.0,0.115
1327.0,0.1091
1328.0,0.09275
1329.0,0.06628
1330.0,0.088
1331.0,0.04927
1332.0,0.05212
1333.0,0.07334
1334.0,0.06431
1335.0,0.08995
1336.0,0.06902
1337.0,0.06016
1338.0,0.06499
1339.0,0.06526
1340.0,0.06458
1341.0,0.06048
1342.0,0.06379
1343.0,0.03854
1344.0,0.02347
1345.0,0.03383
1346.0,0.01417
1347.0,0.01395
1348.0,0.0006192
1349.0,0.002461
1350.0,0.002747
1351.0,0.0004716
1352.0,8.419e-05
1353.0,2.945e-06
1354.0,1.331e-05
1355.0,4.656e-08
1356.0,1.411e-06
1357.0,2.159e-06
1358.0,5.705e-08
1359.0,3.778e-09
1360.0,2.075e-08
1361.0,6.473e-12
1362.0,1.131e-14
1363.0,2.188e-08
1364.0,9.223e-09
1365.0,2.223e-15
1366.0,1.13e-07
1367.0,5.456e-08
1368.0,8.498e-18
1369.0,3.381e-09
1370.0,1.273e-09
1371.0,5.393e-11
1372.0,3.043e-08
1373.0,9.312e-07
1374.0,5.816e-06
1375.0,1.01e-05
1376.0,1.22e-05
1377.0,5.271e-06
1378.0,5.671e-05
1379.0,2.218e-06
1380.0,2.612e-06
1381.0,5.926e-08
1382.0,2.53e-08
1383.0,3.121e-10
1384.0,3.397e-09
1385.0,3.315e-08
1386.0,1.845e-08
1387.0,4.857e-06
1388.0,1.033e-07
1389.0,2.353e-05
1390.0,1.984e-05
1391.0,1.268e-05
1392.0,7.755e-07
1393.0,4.784e-06
1394.0,1.478e-06
1395.0,8.172e-09
1396.0,1.099e-11
1397.0,1.699e-06
1398.0,6.103e-05
1399.0,3.942e-05
1400.0,3.384e-12
1401.0,2.229e-11
1402.0,0.0001719
1403.0,0.0001975
1404.0,5.775e-05
1405.0,3.146e-09
1406.0,0.0001289
1407.0,1.331e-05
1408.0,0.0001087
1409.0,2.851e-05
1410.0,2.778e-05
1411.0,0.000177
1412.0,0.0002689
1413.0,0.003818
1414.0,2.272e-05
1415.0,9.778e-06
1416.0,0.007883
1417.0,0.001923
1418.0,0.002051
1419.0,0.0003025
1420.0,0.001243
1421.0,0.001392
1422.0,0.01036
1423.0,0.001902
1424.0,0.003715
1425.0,0.005178
1426.0,0.006515
1427.0,0.01336
1428.0,0.00056
1429.0,0.009241
1430.0,0.01774
1431.0,0.02
1432.0,0.0004339
1433.0,0.01205
1434.0,0.005809
1435.0,0.004749
