interpolation:linear
wavelength,value
280.0,7.339e-23
280.5,2.455e-21
281.0,1.3270000000000002e-20
281.5,4.292e-19
282.0,5.137e-19
282.5,1.224e-18
283.0,3.814e-18
283.5,6.2e-18
284.0,1.019e-16
284.5,2.989e-16
285.0,6.05e-16
285.5,2.79e-15
286.0,1.111e-14
286.5,4.914e-14
287.0,1.403e-13
287.5,5.392e-13
288.0,1.847e-12
288.5,5.323e-12
289.0,1.38e-11
289.5,4.101e-11
290.0,1.131e-10
290.5,2.303e-10
291.0,4.943e-10
291.5,1.421e-09
292.0,2.895e-09
292.5,4.034e-09
293.0,8.583e-09
293.5,2.069e-08
294.0,3.225e-08
294.5,4.13e-08
295.0,6.957e-08
295.5,1.184e-07
296.0,2.237e-07
296.5,3.061e-07
297.0,4.06e-07
297.5,1.055e-06
298.0,1.613e-06
298.5,1.583e-06
299.0,3.398e-06
299.5,5.366e-06
300.0,5.721e-06
300.5,8.013e-06
301.0,1.368e-05
301.5,2.059e-05
302.0,1.707e-05
302.5,3.287e-05
303.0,5.827e-05
303.5,7.342e-05
304.0,7.052e-05
304.5,0.0001119
305.0,0.0001862
305.5,0.0002267
306.0,0.0002247
306.5,0.0002916
307.0,0.0004753
307.5,0.0006941
308.0,0.0007441
308.5,0.0009212
309.0,0.001077
309.5,0.001477
310.0,0.001613
310.5,0.002722
311.0,0.003656
311.5,0.003634
312.0,0.004209
312.5,0.005645
313.0,0.006442
313.5,0.005964
314.0,0.00838
314.5,0.008676
315.0,0.01172
315.5,0.009086
316.0,0.008998
316.5,0.0144
317.0,0.01784
317.5,0.01799
318.0,0.01511
318.5,0.02162
319.0,0.02756
319.5,0.02001
320.0,0.02375
320.5,0.03436
321.0,0.03487
321.5,0.03386
322.0,0.03136
322.5,0.02747
323.0,0.02997
323.5,0.04138
324.0,0.04907
324.5,0.04781
325.0,0.03829
325.5,0.05304
326.0,0.06845
326.5,0.07218
327.0,0.07057
327.5,0.06651
328.0,0.05523
328.5,0.06314
329.0,0.08075
329.5,0.09351
330.0,0.09282
330.5,0.0706
331.0,0.07069
331.5,0.07462
332.0,0.08514
332.5,0.08633
333.0,0.08486
333.5,0.07377
334.0,0.07509
334.5,0.0907
335.0,0.08752
335.5,0.1034
336.0,0.07154
336.5,0.08179
337.0,0.06584
337.5,0.08133
338.0,0.08246
338.5,0.09669
339.0,0.09596
339.5,0.0922
340.0,0.1068
340.5,0.09665
341.0,0.09544
341.5,0.08805
342.0,0.1054
342.5,0.09878
343.0,0.1083
343.5,0.1019
344.0,0.07436
344.5,0.07583
345.0,0.1009
345.5,0.1033
346.0,0.08801
346.5,0.0998
347.0,0.1069
347.5,0.08641
348.0,0.09886
348.5,0.09903
349.0,0.092
349.5,0.09111
350.0,0.1128
350.5,0.119
351.0,0.1062
351.5,0.1029
352.0,0.1108
352.5,0.0867
353.0,0.1094
353.5,0.1172
354.0,0.1217
354.5,0.1235
355.0,0.1231
355.5,0.1113
356.0,0.1166
356.5,0.09961
357.0,0.08231
357.5,0.1008
358.0,0.07997
358.5,0.06838
359.0,0.09565
359.5,0.1218
360.0,0.1292
360.5,0.1034
361.0,0.09436
361.5,0.1088
362.0,0.09424
362.5,0.1306
363.0,0.1174
363.5,0.1083
364.0,0.1325
364.5,0.1133
365.0,0.1155
365.5,0.1451
366.0,0.1539
366.5,0.1447
367.0,0.1411
367.5,0.1465
368.0,0.1283
368.5,0.1295
369.0,0.14
369.5,0.1494
370.0,0.1594
370.5,0.1238
371.0,0.1324
371.5,0.1658
372.0,0.1101
372.5,0.1321
373.0,0.1345
373.5,0.08761
374.0,0.1274
374.5,0.1056
375.0,0.1027
375.5,0.1535
376.0,0.1273
376.5,0.132
377.0,0.1399
377.5,0.1638
378.0,0.1777
378.5,0.168
379.0,0.1387
379.5,0.1268
380.0,0.1319
380.5,0.1599
381.0,0.1604
381.5,0.1274
382.0,0.1132
382.5,0.09666
383.0,0.08959
383.5,0.08638
384.0,0.09537
384.5,0.1404
385.0,0.1394
385.5,0.1299
386.0,0.1114
386.5,0.1465
387.0,0.1218
387.5,0.1369
388.0,0.1265
388.5,0.1252
389.0,0.1353
389.5,0.164
390.0,0.1648
390.5,0.1518
391.0,0.1788
391.5,0.1825
392.0,0.1539
392.5,0.1379
393.0,0.07682
393.5,0.0559
394.0,0.1138
394.5,0.1449
395.0,0.1769
395.5,0.1798
396.0,0.1561
396.5,0.09136
397.0,0.06864
397.5,0.1397
398.0,0.1957
398.5,0.2025
399.0,0.2196
399.5,0.2191
400.0,0.2276
401.0,0.2283
402.0,0.2414
403.0,0.2298
404.0,0.2267
405.0,0.227
406.0,0.2238
407.0,0.2207
408.0,0.2295
409.0,0.246
410.0,0.2154
411.0,0.2338
412.0,0.2517
413.0,0.2457
414.0,0.2492
415.0,0.2504
416.0,0.2554
417.0,0.2494
418.0,0.2452
419.0,0.2489
420.0,0.2481
421.0,0.26
422.0,0.2475
423.0,0.2421
424.0,0.2563
425.0,0.2563
426.0,0.2503
427.0,0.246
428.0,0.2399
429.0,0.2279
430.0,0.1998
431.0,0.1981
432.0,0.2564
433.0,0.2582
434.0,0.24
435.0,0.2508
436.0,0.2833
437.0,0.2802
438.0,0.2556
439.0,0.2639
440.0,0.2728
441.0,0.2832
442.0,0.304
443.0,0.296
444.0,0.3031
445.0,0.2967
446.0,0.2841
447.0,0.3079
448.0,0.3125
449.0,0.3147
450.0,0.324
451.0,0.3363
452.0,0.3245
453.0,0.3057
454.0,0.3198
455.0,0.3219
456.0,0.3299
457.0,0.3355
458.0,0.3237
459.0,0.3223
460.0,0.323
461.0,0.3306
462.0,0.3339
463.0,0.3317
464.0,0.3273
465.0,0.3241
466.0,0.328
467.0,0.3218
468.0,0.3257
469.0,0.3275
470.0,0.317
471.0,0.3169
472.0,0.3339
473.0,0.3297
474.0,0.3297
475.0,0.3318
476.0,0.321
477.0,0.3212
478.0,0.3304
479.0,0.3288
480.0,0.33
481.0,0.3369
482.0,0.3395
483.0,0.3364
484.0,0.3302
485.0,0.3153
486.0,0.2764
487.0,0.2903
488.0,0.3185
489.0,0.3193
490.0,0.3364
491.0,0.331
492.0,0.3128
493.0,0.3232
494.0,0.3267
495.0,0.3297
496.0,0.3318
497.0,0.3369
498.0,0.321
499.0,0.3248
500.0,0.3148
501.0,0.3084
502.0,0.3029
503.0,0.314
504.0,0.3026
505.0,0.3161
506.0,0.3263
507.0,0.3107
508.0,0.3021
509.0,0.3115
510.0,0.3106
511.0,0.3196
512.0,0.3235
513.0,0.3063
514.0,0.3045
515.0,0.3015
516.0,0.3006
517.0,0.2673
518.0,0.2809
519.0,0.2946
520.0,0.3051
521.0,0.3079
522.0,0.3078
523.0,0.302
524.0,0.3121
525.0,0.3148
526.0,0.3004
527.0,0.2823
528.0,0.298
529.0,0.3135
530.0,0.3087
531.0,0.3129
532.0,0.3019
533.0,0.2931
534.0,0.3021
535.0,0.3091
536.0,0.3124
537.0,0.3004
538.0,0.306
539.0,0.3033
540.0,0.2906
541.0,0.2914
542.0,0.3
543.0,0.2976
544.0,0.3019
545.0,0.3011
546.0,0.3016
547.0,0.3022
548.0,0.299
549.0,0.3002
550.0,0.3038
551.0,0.3003
552.0,0.3024
553.0,0.2968
554.0,0.3038
555.0,0.3041
556.0,0.3
557.0,0.2903
558.0,0.2876
559.0,0.2816
560.0,0.2847
561.0,0.2878
562.0,0.285
563.0,0.292
564.0,0.2834
565.0,0.2804
566.0,0.2757
567.0,0.2802
568.0,0.2758
569.0,0.2658
570.0,0.2662
571.0,0.2654
572.0,0.2694
573.0,0.2718
574.0,0.2704
575.0,0.2645
576.0,0.2621
577.0,0.2654
578.0,0.2624
579.0,0.2651
580.0,0.2728
581.0,0.2762
582.0,0.2832
583.0,0.2854
584.0,0.2889
585.0,0.2824
586.0,0.2767
587.0,0.2817
588.0,0.2705
589.0,0.2313
590.0,0.2425
591.0,0.2617
592.0,0.2554
593.0,0.263
594.0,0.2597
595.0,0.2499
596.0,0.2668
597.0,0.262
598.0,0.2635
599.0,0.2646
600.0,0.2667
601.0,0.2659
602.0,0.2643
603.0,0.2694
604.0,0.2743
605.0,0.2733
606.0,0.273
607.0,0.2765
608.0,0.2743
609.0,0.2754
610.0,0.2742
611.0,0.2762
612.0,0.2759
613.0,0.2729
614.0,0.2699
615.0,0.2764
616.0,0.2679
617.0,0.2678
618.0,0.2785
619.0,0.2759
620.0,0.2777
621.0,0.2774
622.0,0.2738
623.0,0.2693
624.0,0.2651
625.0,0.2644
626.0,0.2681
627.0,0.2693
628.0,0.2312
629.0,0.2557
630.0,0.2491
631.0,0.2617
632.0,0.2599
633.0,0.2707
634.0,0.2704
635.0,0.2759
636.0,0.2735
637.0,0.2791
638.0,0.2834
639.0,0.2811
640.0,0.2795
641.0,0.2801
642.0,0.2797
643.0,0.2836
644.0,0.2836
645.0,0.2836
646.0,0.2745
647.0,0.2654
648.0,0.2663
649.0,0.26
650.0,0.2689
651.0,0.2818
652.0,0.263
653.0,0.2786
654.0,0.276
655.0,0.2621
656.0,0.2349
657.0,0.2417
658.0,0.2734
659.0,0.2763
660.0,0.2781
661.0,0.2805
662.0,0.2799
663.0,0.2748
664.0,0.28
665.0,0.2818
666.0,0.2827
667.0,0.2832
668.0,0.2842
669.0,0.2892
670.0,0.2883
671.0,0.2887
672.0,0.2866
673.0,0.2913
674.0,0.2906
675.0,0.2883
676.0,0.2906
677.0,0.2881
678.0,0.2892
679.0,0.2848
680.0,0.2873
681.0,0.2855
682.0,0.2852
683.0,0.2847
684.0,0.2833
685.0,0.2861
686.0,0.284
687.0,0.1092
688.0,0.1587
689.0,0.1605
690.0,0.1807
691.0,0.2055
692.0,0.2264
693.0,0.2241
694.0,0.2251
695.0,0.2453
696.0,0.2465
697.0,0.2737
698.0,0.2692
699.0,0.2542
700.0,0.2506
701.0,0.2443
702.0,0.2495
703.0,0.2512
704.0,0.2644
705.0,0.2646
706.0,0.2663
707.0,0.2674
708.0,0.2676
709.0,0.2718
710.0,0.2697
711.0,0.2707
712.0,0.2717
713.0,0.2672
714.0,0.2688
715.0,0.2566
716.0,0.256
717.0,0.1918
718.0,0.1744
719.0,0.1575
720.0,0.1617
721.0,0.1948
722.0,0.2411
723.0,0.2157
724.0,0.1832
725.0,0.1771
726.0,0.186
727.0,0.1962
728.0,0.1754
729.0,0.1921
730.0,0.2001
731.0,0.19
732.0,0.2144
733.0,0.2366
734.0,0.2458
735.0,0.2388
736.0,0.2377
737.0,0.239
738.0,0.2513
739.0,0.2467
740.0,0.2557
741.0,0.2546
742.0,0.2566
743.0,0.2636
744.0,0.2639
745.0,0.2648
746.0,0.266
747.0,0.2669
748.0,0.2664
749.0,0.2635
750.0,0.2634
751.0,0.2608
752.0,0.262
753.0,0.2635
754.0,0.2641
755.0,0.2625
756.0,0.2626
757.0,0.2629
758.0,0.2594
759.0,0.2482
760.0,0.005316
761.0,0.001927
762.0,0.05325
763.0,0.01173
764.0,0.02767
765.0,0.05304
766.0,0.08984
767.0,0.1484
768.0,0.2076
769.0,0.2213
770.0,0.2398
771.0,0.2467
772.0,0.2489
773.0,0.251
774.0,0.2502
775.0,0.2485
776.0,0.2517
777.0,0.2484
778.0,0.2469
779.0,0.2471
780.0,0.2458
781.0,0.2462
782.0,0.2478
783.0,0.2436
784.0,0.245
785.0,0.2428
786.0,0.2451
787.0,0.2363
788.0,0.2314
789.0,0.2314
790.0,0.2197
791.0,0.2272
792.0,0.2265
793.0,0.2223
794.0,0.2317
795.0,0.234
796.0,0.2187
797.0,0.2181
798.0,0.2327
799.0,0.2298
800.0,0.224
801.0,0.2212
802.0,0.2203
803.0,0.2175
804.0,0.2188
805.0,0.2206
806.0,0.231
807.0,0.2274
808.0,0.2278
809.0,0.2203
810.0,0.2167
811.0,0.2137
812.0,0.201
813.0,0.1953
814.0,0.1585
815.0,0.1588
816.0,0.1457
817.0,0.1487
818.0,0.1402
819.0,0.1678
820.0,0.1544
821.0,0.1984
822.0,0.1898
823.0,0.1036
824.0,0.1772
825.0,0.1953
826.0,0.1817
827.0,0.1979
828.0,0.1504
829.0,0.1819
830.0,0.1785
831.0,0.1789
832.0,0.1703
833.0,0.1888
834.0,0.1773
835.0,0.208
836.0,0.1894
837.0,0.2085
838.0,0.1973
839.0,0.2054
840.0,0.2111
841.0,0.2061
842.0,0.2097
843.0,0.213
844.0,0.2083
845.0,0.2176
846.0,0.2173
847.0,0.2142
848.0,0.2114
849.0,0.2054
850.0,0.1969
851.0,0.2069
852.0,0.2063
853.0,0.1997
854.0,0.1714
855.0,0.1898
856.0,0.2068
857.0,0.2124
858.0,0.2104
859.0,0.2113
860.0,0.2121
861.0,0.2108
862.0,0.2144
863.0,0.2195
864.0,0.2086
865.0,0.2069
866.0,0.186
867.0,0.1942
868.0,0.2114
869.0,0.2071
870.0,0.213
871.0,0.2101
872.0,0.2094
873.0,0.209
874.0,0.2066
875.0,0.2023
876.0,0.2043
877.0,0.2065
878.0,0.2085
879.0,0.2053
880.0,0.201
881.0,0.1972
882.0,0.2012
883.0,0.2026
884.0,0.2014
885.0,0.2028
886.0,0.1907
887.0,0.1948
888.0,0.1966
889.0,0.201
890.0,0.1965
891.0,0.1976
892.0,0.1883
893.0,0.1794
894.0,0.1658
895.0,0.148
896.0,0.1374
897.0,0.1089
898.0,0.1228
899.0,0.08372
900.0,0.1318
901.0,0.08775
902.0,0.1153
903.0,0.1118
904.0,0.164
905.0,0.1557
906.0,0.1429
907.0,0.1005
908.0,0.1061
909.0,0.1201
910.0,0.09575
911.0,0.1111
912.0,0.1156
913.0,0.09662
914.0,0.09816
915.0,0.1049
916.0,0.08778
917.0,0.1215
918.0,0.08892
919.0,0.1277
920.0,0.1383
921.0,0.1425
922.0,0.1196
923.0,0.1388
924.0,0.1196
925.0,0.1178
926.0,0.1172
927.0,0.1387
928.0,0.07984
929.0,0.06757
930.0,0.04447
931.0,0.04157
932.0,0.02279
933.0,0.01597
934.0,0.004518
935.0,0.01815
936.0,0.008167
937.0,0.008271
938.0,0.01116
939.0,0.04003
940.0,0.05424
941.0,0.03373
942.0,0.04224
943.0,0.02273
944.0,0.02924
945.0,0.03641
946.0,0.01221
947.0,0.03475
948.0,0.02501
949.0,0.05383
950.0,0.007044
951.0,0.05329
952.0,0.0208
953.0,0.03196
954.0,0.04534
955.0,0.03312
956.0,0.04041
957.0,0.02063
958.0,0.06317
959.0,0.04132
960.0,0.04648
961.0,0.05927
962.0,0.056
963.0,0.07116
964.0,0.06343
965.0,0.07007
966.0,0.07002
967.0,0.06847
968.0,0.1207
969.0,0.1208
970.0,0.109
971.0,0.1378
972.0,0.1285
973.0,0.09891
974.0,0.09341
975.0,0.1004
976.0,0.08789
977.0,0.1163
978.0,0.1037
979.0,0.1118
980.0,0.1037
981.0,0.1372
982.0,0.1264
983.0,0.1189
984.0,0.148
985.0,0.1254
986.0,0.1549
987.0,0.1479
988.0,0.1481
989.0,0.1573
990.0,0.1469
991.0,0.1573
992.0,0.1587
993.0,0.1509
994.0,0.1592
995.0,0.1598
996.0,0.1583
997.0,0.1589
998.0,0.1578
999.0,0.1575
1000.0,0.1552
1001.0,0.1585
1002.0,0.149
1003.0,0.1554
1004.0,0.1502
1005.0,0.1465
1006.0,0.1514
1007.0,0.155
1008.0,0.1533
1009.0,0.1515
1010.0,0.1504
1011.0,0.1544
1012.0,0.1521
1013.0,0.1543
1014.0,0.1532
1015.0,0.1521
1016.0,0.1513
1017.0,0.1514
1018.0,0.1515
1019.0,0.1463
1020.0,0.1504
1021.0,0.1506
1022.0,0.1487
1023.0,0.1502
1024.0,0.1462
1025.0,0.1507
1026.0,0.1495
1027.0,0.1493
1028.0,0.1488
1029.0,0.1469
1030.0,0.1486
1031.0,0.1477
1032.0,0.1475
1033.0,0.1452
1034.0,0.1453
1035.0,0.1458
1036.0,0.1463
1037.0,0.144
1038.0,0.1445
1039.0,0.1443
1040.0,0.1437
1041.0,0.1441
1042.0,0.1431
1043.0,0.1425
1044.0,0.1429
1045.0,0.1408
1046.0,0.1391
1047.0,0.1402
1048.0,0.1408
1049.0,0.1402
1050.0,0.1394
1051.0,0.1389
1052.0,0.1382
1053.0,0.1368
1054.0,0.1369
1055.0,0.1366
1056.0,0.1358
1057.0,0.1351
1058.0,0.1315
1059.0,0.1313
1060.0,0.131
1061.0,0.1306
1062.0,0.131
1063.0,0.1295
1064.0,0.1311
1065.0,0.1294
1066.0,0.1274
1067.0,0.1289
1068.0,0.1255
1069.0,0.1221
1070.0,0.1258
1071.0,0.1294
1072.0,0.1267
1073.0,0.1251
1074.0,0.1303
1075.0,0.1194
1076.0,0.1299
1077.0,0.1252
1078.0,0.1215
1079.0,0.1287
1080.0,0.1232
1081.0,0.1169
1082.0,0.1227
1083.0,0.1242
1084.0,0.1158
1085.0,0.1238
1086.0,0.1073
1087.0,0.1144
1088.0,0.1234
1089.0,0.1149
1090.0,0.1105
1091.0,0.1218
1092.0,0.1222
1093.0,0.09255
1094.0,0.1104
1095.0,0.09649
1096.0,0.08959
1097.0,0.1195
1098.0,0.08631
1099.0,0.09149
1100.0,0.08125
1101.0,0.08393
1102.0,0.0771
1103.0,0.07424
1104.0,0.07475
1105.0,0.08836
1106.0,0.05214
1107.0,0.08124
1108.0,0.05961
1109.0,0.06073
1110.0,0.07793
1111.0,0.04052
1112.0,0.06077
1113.0,0.02787
1114.0,0.03127
1115.0,0.02485
1116.0,0.01516
1117.0,0.002567
1118.0,0.01725
1119.0,0.00539
1120.0,0.006261
1121.0,0.009616
1122.0,0.002121
1123.0,0.005739
1124.0,0.004803
1125.0,0.007035
1126.0,0.0008453
1127.0,0.0081
1128.0,0.002759
1129.0,0.003058
1130.0,0.00188
1131.0,0.0231
1132.0,0.01637
1133.0,0.006549
1134.0,0.0006355
1135.0,0.0002999
1136.0,0.004388
1137.0,0.02115
1138.0,0.01388
1139.0,0.03148
1140.0,0.022
1141.0,0.01336
1142.0,0.01705
1143.0,0.02935
1144.0,0.006076
1145.0,0.006215
1146.0,0.006677
1147.0,0.0009149
1148.0,0.02433
1149.0,0.01662
1150.0,0.007607
1151.0,0.01382
1152.0,0.02032
1153.0,0.02268
1154.0,0.006608
1155.0,0.03278
1156.0,0.02713
1157.0,0.0363
1158.0,0.0357
1159.0,0.04058
1160.0,0.03352
1161.0,0.04842
1162.0,0.04774
1163.0,0.07924
1164.0,0.06281
1165.0,0.05419
1166.0,0.0583
1167.0,0.06592
1168.0,0.06577
1169.0,0.06845
1170.0,0.07916
1171.0,0.07718
1172.0,0.08205
1173.0,0.07909
1174.0,0.04661
1175.0,0.08062
1176.0,0.09559
1177.0,0.08688
1178.0,0.05741
1179.0,0.09622
1180.0,0.07844
1181.0,0.08114
1182.0,0.04673
1183.0,0.08132
1184.0,0.07292
1185.0,0.0674
1186.0,0.09002
1187.0,0.08236
1188.0,0.04557
1189.0,0.07632
1190.0,0.08893
1191.0,0.0775
1192.0,0.09086
1193.0,0.08467
1194.0,0.08889
1195.0,0.07936
1196.0,0.07402
1197.0,0.09057
1198.0,0.08127
1199.0,0.05982
1200.0,0.0837
1201.0,0.07707
1202.0,0.08006
1203.0,0.07697
1204.0,0.06385
1205.0,0.08428
1206.0,0.0976
1207.0,0.0783
1208.0,0.07994
1209.0,0.08184
1210.0,0.08754
1211.0,0.08025
1212.0,0.0735
1213.0,0.09149
1214.0,0.0772
1215.0,0.07542
1216.0,0.09201
1217.0,0.08782
1218.0,0.09106
1219.0,0.08869
1220.0,0.09137
1221.0,0.09366
1222.0,0.09042
1223.0,0.08868
1224.0,0.08591
1225.0,0.09251
1226.0,0.09481
1227.0,0.08211
1228.0,0.09629
1229.0,0.09486
1230.0,0.09224
1231.0,0.09818
1232.0,0.09747
1233.0,0.08968
1234.0,0.09917
1235.0,0.09778
1236.0,0.0991
1237.0,0.09605
1238.0,0.09878
1239.0,0.09747
1240.0,0.0981
1241.0,0.09639
1242.0,0.09728
1243.0,0.09657
1244.0,0.09685
1245.0,0.0975
1246.0,0.09699
1247.0,0.09625
1248.0,0.09554
1249.0,0.09641
1250.0,0.09543
1251.0,0.0934
1252.0,0.09444
1253.0,0.09185
1254.0,0.08959
1255.0,0.09387
1256.0,0.08788
1257.0,0.08672
1258.0,0.091
1259.0,0.08265
1260.0,0.08369
1261.0,0.07302
1262.0,0.06785
1263.0,0.06783
1264.0,0.05626
1265.0,0.0675
1266.0,0.06111
1267.0,0.06485
1268.0,0.05733
1269.0,0.01705
1270.0,0.06355
1271.0,0.07363
1272.0,0.0744
1273.0,0.07294
1274.0,0.07411
1275.0,0.07623
1276.0,0.07818
1277.0,0.08035
1278.0,0.08421
1279.0,0.08346
1280.0,0.08247
1281.0,0.07985
1282.0,0.07886
1283.0,0.08453
1284.0,0.08622
1285.0,0.08713
1286.0,0.08934
1287.0,0.08603
1288.0,0.08668
1289.0,0.08012
1290.0,0.08606
1291.0,0.08798
1292.0,0.07604
1293.0,0.08478
1294.0,0.08393
1295.0,0.08106
1296.0,0.07361
1297.0,0.06707
1298.0,0.07806
1299.0,0.08542
1300.0,0.06291
1301.0,0.06621
1302.0,0.07812
1303.0,0.06281
1304.0,0.04569
1305.0,0.07605
1306.0,0.07484
1307.0,0.04948
1308.0,0.06429
1309.0,0.07255
1310.0,0.04761
1311.0,0.05967
1312.0,0.05728
1313.0,0.05366
1314.0,0.04496
1315.0,0.04287
1316.0,0.05716
1317.0,0.05277
1318.0,0.06096
1319.0,0.03829
1320.0,0.03859
1321.0,0.04849
1322.0,0.04709
1323.0,0.02829
1324.0,0.03803
1325.0,0.05486
1326.0,0.04266
1327.0,0.03928
1328.0,0.03117
1329.0,0.01772
1330.0,0.02635
1331.0,0.01062
1332.0,0.01213
1333.0,0.01786
1334.0,0.01911
1335.0,0.02725
1336.0,0.0182
1337.0,0.01572
1338.0,0.01653
1339.0,0.017
1340.0,0.01814
1341.0,0.01382
1342.0,0.01514
1343.0,0.005735
1344.0,0.003839
1345.0,0.004963
1346.0,0.001007
1347.0,0.0008351
1348.0,1.253e-05
1349.0,5.665e-05
1350.0,6.816e-05
1351.0,5.96e-06
1352.0,1.002e-06
1353.0,4.946e-08
1354.0,1.758e-07
1355.0,1.357e-09
1356.0,2.397e-08
1357.0,3.639e-08
1358.0,1.593e-09
1359.0,2.006e-10
1360.0,7.25e-10
1361.0,8.108e-13
1362.0,2.218e-15
1363.0,9.746e-10
1364.0,4.024e-10
1365.0,7.744e-16
1366.0,4.224e-09
1367.0,1.724e-09
1368.0,5.979e-18
1369.0,1.483e-10
1370.0,7.302e-11
1371.0,4.139e-12
1372.0,9.353e-10
1373.0,1.888e-08
1374.0,8.831e-08
1375.0,1.592e-07
1376.0,1.499e-07
1377.0,6.784e-08
1378.0,6.567e-07
1379.0,2.863e-08
1380.0,3.949e-08
1381.0,1.027e-09
1382.0,8.196e-10
1383.0,1.225e-11
1384.0,1.606e-10
1385.0,7.694e-10
1386.0,7.225e-10
1387.0,8.752e-08
1388.0,1.738e-09
1389.0,3.007e-07
1390.0,2.564e-07
1391.0,1.709e-07
1392.0,1.115e-08
1393.0,6.013e-08
1394.0,2.984e-08
1395.0,2.186e-10
1396.0,1.056e-12
1397.0,2.33e-08
1398.0,6.902e-07
1399.0,4.394e-07
1400.0,4.513e-13
1401.0,1.873e-12
1402.0,2.034e-06
1403.0,2.014e-06
1404.0,5.513e-07
1405.0,1.034e-10
1406.0,1.247e-06
1407.0,1.562e-07
1408.0,1.036e-06
1409.0,3.216e-07
1410.0,2.877e-07
1411.0,1.828e-06
1412.0,3.263e-06
1413.0,7.641e-05
1414.0,2.346e-07
