interpolation:linear
wavelength,value
280.0,1.081e-19
280.5,2.908e-18
281.0,7.576e-20
281.5,5.054e-19
282.0,2.489e-18
282.5,7.316e-18
283.0,2.496e-17
283.5,4.155e-17
284.0,6.66e-16
284.5,1.889e-15
285.0,4.628e-15
285.5,3.037e-14
286.0,1.328e-13
286.5,6.713e-13
287.0,2.059e-12
287.5,8.461e-12
288.0,2.61e-11
288.5,1.043e-10
289.0,3.527e-10
289.5,1.336e-09
290.0,4.405e-09
290.5,1.034e-08
291.0,2.602e-08
291.5,9.051e-08
292.0,2.276e-07
292.5,3.533e-07
293.0,8.6e-07
293.5,2.491e-06
294.0,4.458e-06
294.5,5.702e-06
295.0,1.084e-05
295.5,2.491e-05
296.0,4.633e-05
296.5,6.243e-05
297.0,8.191e-05
297.5,0.0002095
298.0,0.000317
298.5,0.0003089
299.0,0.0006598
299.5,0.001034
300.0,0.001102
300.5,0.001545
301.0,0.002646
301.5,0.00401
302.0,0.003343
302.5,0.006241
303.0,0.01056
303.5,0.01281
304.0,0.01173
304.5,0.01637
305.0,0.02262
305.5,0.02446
306.0,0.02315
306.5,0.02779
307.0,0.03808
307.5,0.04697
308.0,0.04901
308.5,0.0558
309.0,0.05346
309.5,0.05812
310.0,0.05701
310.5,0.09123
311.0,0.1122
311.5,0.1074
312.0,0.1028
312.5,0.1216
313.0,0.1298
313.5,0.1278
314.0,0.1543
314.5,0.1307
315.0,0.1703
315.5,0.1456
316.0,0.1225
316.5,0.1703
317.0,0.2115
317.5,0.2221
318.0,0.1694
318.5,0.2016
319.0,0.2342
319.5,0.1975
320.0,0.2398
320.5,0.2874
321.0,0.2462
321.5,0.2351
322.0,0.2611
322.5,0.2266
323.0,0.2196
323.5,0.263
324.0,0.3055
324.5,0.3136
325.0,0.2748
325.5,0.3458
326.0,0.4197
326.5,0.4142
327.0,0.4149
327.5,0.4034
328.0,0.3661
328.5,0.3758
329.0,0.4417
329.5,0.4985
330.0,0.5051
330.5,0.4099
331.0,0.4196
331.5,0.4218
332.0,0.4488
332.5,0.4408
333.0,0.4412
333.5,0.4037
334.0,0.4143
334.5,0.4719
335.0,0.4401
335.5,0.514
336.0,0.3555
336.5,0.4178
337.0,0.3445
337.5,0.4292
338.0,0.4147
338.5,0.4784
339.0,0.4733
339.5,0.4552
340.0,0.535
340.5,0.4817
341.0,0.4699
341.5,0.4312
342.0,0.5152
342.5,0.4818
343.0,0.53
343.5,0.4991
344.0,0.3686
344.5,0.3724
345.0,0.4925
345.5,0.5026
346.0,0.427
346.5,0.4833
347.0,0.5189
347.5,0.4195
348.0,0.478
348.5,0.4777
349.0,0.443
349.5,0.4385
350.0,0.5422
350.5,0.5719
351.0,0.5109
351.5,0.4966
352.0,0.5332
352.5,0.4159
353.0,0.5237
353.5,0.5599
354.0,0.5811
354.5,0.5893
355.0,0.5873
355.5,0.5304
356.0,0.5549
356.5,0.4737
357.0,0.3914
357.5,0.4792
358.0,0.3797
358.5,0.3244
359.0,0.4538
359.5,0.5784
360.0,0.613
360.5,0.4899
361.0,0.4465
361.5,0.5139
362.0,0.4442
362.5,0.6146
363.0,0.5519
363.5,0.5082
364.0,0.6214
364.5,0.5311
365.0,0.5409
365.5,0.6787
366.0,0.719
366.5,0.6754
367.0,0.6577
367.5,0.6824
368.0,0.5971
368.5,0.6025
369.0,0.6505
369.5,0.6933
370.0,0.739
370.5,0.5735
371.0,0.6127
371.5,0.7665
372.0,0.5087
372.5,0.6099
373.0,0.6203
373.5,0.4035
374.0,0.5863
374.5,0.4855
375.0,0.4719
375.5,0.7045
376.0,0.584
376.5,0.6052
377.0,0.6407
377.5,0.7495
378.0,0.8124
378.5,0.7679
379.0,0.6337
379.5,0.5789
380.0,0.6019
380.5,0.7289
381.0,0.7303
381.5,0.5788
382.0,0.514
382.5,0.438
383.0,0.4055
383.5,0.3905
384.0,0.4307
384.5,0.6335
385.0,0.6282
385.5,0.585
386.0,0.5009
386.5,0.6579
387.0,0.5467
387.5,0.614
388.0,0.5669
388.5,0.5603
389.0,0.6048
389.5,0.7325
390.0,0.7351
390.5,0.6765
391.0,0.7962
391.5,0.8121
392.0,0.684
392.5,0.6123
393.0,0.3406
393.5,0.2476
394.0,0.5038
394.5,0.6405
395.0,0.7815
395.5,0.7939
396.0,0.6883
396.5,0.4023
397.0,0.3019
397.5,0.6139
398.0,0.8597
398.5,0.8886
399.0,0.962
399.5,0.9588
400.0,0.9957
401.0,1.012
402.0,1.068
403.0,1.014
404.0,0.9982
405.0,0.998
406.0,0.9815
407.0,0.9654
408.0,1.003
409.0,1.073
410.0,0.9378
411.0,1.016
412.0,1.09
413.0,1.063
414.0,1.076
415.0,1.079
416.0,1.097
417.0,1.07
418.0,1.05
419.0,1.064
420.0,1.059
421.0,1.108
422.0,1.053
423.0,1.028
424.0,1.087
425.0,1.085
426.0,1.057
427.0,1.037
428.0,1.01
429.0,0.9562
430.0,0.8367
431.0,0.8293
432.0,1.07
433.0,1.076
434.0,0.9992
435.0,1.044
436.0,1.175
437.0,1.159
438.0,1.055
439.0,1.092
440.0,1.126
441.0,1.167
442.0,1.251
443.0,1.219
444.0,1.245
445.0,1.218
446.0,1.162
447.0,1.256
448.0,1.276
449.0,1.28
450.0,1.315
451.0,1.364
452.0,1.314
453.0,1.235
454.0,1.289
455.0,1.297
456.0,1.328
457.0,1.35
458.0,1.304
459.0,1.297
460.0,1.301
461.0,1.331
462.0,1.34
463.0,1.331
464.0,1.309
465.0,1.291
466.0,1.303
467.0,1.28
468.0,1.295
469.0,1.302
470.0,1.26
471.0,1.258
472.0,1.326
473.0,1.309
474.0,1.311
475.0,1.323
476.0,1.284
477.0,1.288
478.0,1.324
479.0,1.315
480.0,1.317
481.0,1.341
482.0,1.347
483.0,1.33
484.0,1.303
485.0,1.241
486.0,1.084
487.0,1.136
488.0,1.246
489.0,1.25
490.0,1.315
491.0,1.292
492.0,1.22
493.0,1.26
494.0,1.272
495.0,1.283
496.0,1.291
497.0,1.311
498.0,1.25
499.0,1.266
500.0,1.229
501.0,1.207
502.0,1.191
503.0,1.24
504.0,1.212
505.0,1.253
506.0,1.293
507.0,1.231
508.0,1.191
509.0,1.224
510.0,1.217
511.0,1.249
512.0,1.262
513.0,1.195
514.0,1.186
515.0,1.175
516.0,1.172
517.0,1.041
518.0,1.095
519.0,1.148
520.0,1.19
521.0,1.201
522.0,1.203
523.0,1.181
524.0,1.224
525.0,1.239
526.0,1.184
527.0,1.116
528.0,1.18
529.0,1.245
530.0,1.227
531.0,1.245
532.0,1.203
533.0,1.167
534.0,1.202
535.0,1.228
536.0,1.239
537.0,1.19
538.0,1.21
539.0,1.2
540.0,1.151
541.0,1.159
542.0,1.196
543.0,1.183
544.0,1.204
545.0,1.2
546.0,1.206
547.0,1.205
548.0,1.19
549.0,1.193
550.0,1.208
551.0,1.193
552.0,1.201
553.0,1.18
554.0,1.208
555.0,1.211
556.0,1.195
557.0,1.158
558.0,1.15
559.0,1.129
560.0,1.143
561.0,1.158
562.0,1.15
563.0,1.182
564.0,1.15
565.0,1.141
566.0,1.124
567.0,1.146
568.0,1.137
569.0,1.113
570.0,1.112
571.0,1.105
572.0,1.133
573.0,1.145
574.0,1.142
575.0,1.121
576.0,1.111
577.0,1.123
578.0,1.105
579.0,1.109
580.0,1.128
581.0,1.132
582.0,1.153
583.0,1.154
584.0,1.164
585.0,1.135
586.0,1.112
587.0,1.137
588.0,1.112
589.0,0.9918
590.0,1.037
591.0,1.093
592.0,1.082
593.0,1.095
594.0,1.088
595.0,1.064
596.0,1.101
597.0,1.09
598.0,1.086
599.0,1.086
600.0,1.086
601.0,1.076
602.0,1.069
603.0,1.086
604.0,1.104
605.0,1.098
606.0,1.093
607.0,1.103
608.0,1.09
609.0,1.092
610.0,1.084
611.0,1.089
612.0,1.085
613.0,1.072
614.0,1.056
615.0,1.079
616.0,1.043
617.0,1.041
618.0,1.081
619.0,1.07
620.0,1.076
621.0,1.078
622.0,1.066
623.0,1.05
624.0,1.031
625.0,1.029
626.0,1.044
627.0,1.057
628.0,1.0
629.0,1.037
630.0,1.013
631.0,1.032
632.0,1.019
633.0,1.048
634.0,1.036
635.0,1.051
636.0,1.037
637.0,1.053
638.0,1.062
639.0,1.05
640.0,1.039
641.0,1.038
642.0,1.033
643.0,1.047
644.0,1.043
645.0,1.045
646.0,1.022
647.0,1.013
648.0,1.015
649.0,0.9952
650.0,0.9954
651.0,1.038
652.0,0.9996
653.0,1.024
654.0,1.012
655.0,0.9767
656.0,0.8639
657.0,0.8869
658.0,0.9926
659.0,0.999
660.0,1.003
661.0,1.01
662.0,1.013
663.0,0.9924
664.0,1.003
665.0,1.003
666.0,1.003
667.0,1.002
668.0,1.002
669.0,1.017
670.0,1.012
671.0,1.012
672.0,1.003
673.0,1.018
674.0,1.014
675.0,1.004
676.0,1.011
677.0,1.001
678.0,1.004
679.0,0.9872
680.0,0.995
681.0,0.9884
682.0,0.9871
683.0,0.9852
684.0,0.9803
685.0,0.9884
686.0,0.9828
687.0,0.7103
688.0,0.8044
689.0,0.8064
690.0,0.8365
691.0,0.87
692.0,0.8935
693.0,0.8872
694.0,0.8799
695.0,0.9094
696.0,0.9107
697.0,0.9575
698.0,0.9428
699.0,0.926
700.0,0.915
701.0,0.9074
702.0,0.9116
703.0,0.9132
704.0,0.939
705.0,0.9404
706.0,0.9382
707.0,0.9384
708.0,0.9406
709.0,0.9398
710.0,0.9408
711.0,0.9388
712.0,0.9351
713.0,0.9265
714.0,0.9298
715.0,0.9026
716.0,0.9037
717.0,0.805
718.0,0.7432
719.0,0.6831
720.0,0.717
721.0,0.7782
722.0,0.8759
723.0,0.823
724.0,0.75
725.0,0.741
726.0,0.774
727.0,0.7802
728.0,0.74
729.0,0.76
730.0,0.804
731.0,0.7717
732.0,0.8174
733.0,0.8575
734.0,0.8757
735.0,0.8587
736.0,0.8575
737.0,0.8611
738.0,0.8693
739.0,0.8523
740.0,0.8729
741.0,0.8633
742.0,0.8632
743.0,0.8849
744.0,0.8819
745.0,0.8816
746.0,0.8856
747.0,0.8874
748.0,0.8855
749.0,0.8754
750.0,0.8748
751.0,0.8659
752.0,0.8696
753.0,0.8739
754.0,0.8759
755.0,0.871
756.0,0.8705
757.0,0.8718
758.0,0.8611
759.0,0.8465
760.0,0.2013
761.0,0.1199
762.0,0.4924
763.0,0.2829
764.0,0.3922
765.0,0.4927
766.0,0.5763
767.0,0.6993
768.0,0.7853
769.0,0.797
770.0,0.8187
771.0,0.823
772.0,0.824
773.0,0.8296
774.0,0.8254
775.0,0.819
776.0,0.8289
777.0,0.8179
778.0,0.813
779.0,0.8137
780.0,0.8091
781.0,0.8099
782.0,0.8149
783.0,0.8006
784.0,0.8044
785.0,0.7986
786.0,0.8076
787.0,0.7957
788.0,0.7869
789.0,0.7869
790.0,0.7692
791.0,0.7727
792.0,0.7666
793.0,0.7546
794.0,0.764
795.0,0.7778
796.0,0.7584
797.0,0.7595
798.0,0.7774
799.0,0.7732
800.0,0.7609
801.0,0.7595
802.0,0.7572
803.0,0.752
804.0,0.7525
805.0,0.7489
806.0,0.7678
807.0,0.7591
808.0,0.7595
809.0,0.7469
810.0,0.7419
811.0,0.745
812.0,0.7267
813.0,0.7136
814.0,0.6384
815.0,0.6342
816.0,0.5918
817.0,0.6013
818.0,0.5812
819.0,0.6404
820.0,0.6068
821.0,0.6967
822.0,0.6788
823.0,0.482
824.0,0.6634
825.0,0.6852
826.0,0.663
827.0,0.6956
828.0,0.6011
829.0,0.6582
830.0,0.6508
831.0,0.6526
832.0,0.6347
833.0,0.6693
834.0,0.6494
835.0,0.7054
836.0,0.6802
837.0,0.707
838.0,0.6872
839.0,0.6959
840.0,0.7105
841.0,0.7014
842.0,0.7014
843.0,0.6995
844.0,0.6906
845.0,0.7128
846.0,0.7095
847.0,0.6958
848.0,0.6921
849.0,0.6725
850.0,0.6442
851.0,0.6828
852.0,0.6776
853.0,0.6517
854.0,0.5632
855.0,0.6181
856.0,0.6757
857.0,0.6904
858.0,0.6855
859.0,0.6858
860.0,0.6868
861.0,0.6831
862.0,0.6937
863.0,0.7101
864.0,0.6746
865.0,0.6686
866.0,0.6012
867.0,0.6274
868.0,0.6827
869.0,0.6685
870.0,0.6875
871.0,0.6782
872.0,0.6758
873.0,0.6744
874.0,0.6664
875.0,0.6529
876.0,0.6597
877.0,0.6663
878.0,0.6737
879.0,0.6633
880.0,0.6491
881.0,0.6396
882.0,0.6536
883.0,0.6554
884.0,0.6525
885.0,0.6574
886.0,0.6276
887.0,0.6334
888.0,0.6433
889.0,0.6497
890.0,0.6454
891.0,0.6437
892.0,0.6266
893.0,0.6089
894.0,0.5909
895.0,0.5629
896.0,0.5323
897.0,0.4634
898.0,0.5021
899.0,0.3895
900.0,0.5104
901.0,0.408
902.0,0.4687
903.0,0.4766
904.0,0.5865
905.0,0.5683
906.0,0.5335
907.0,0.4426
908.0,0.4501
909.0,0.4832
910.0,0.4351
911.0,0.4591
912.0,0.4781
913.0,0.442
914.0,0.4368
915.0,0.4728
916.0,0.4026
917.0,0.5022
918.0,0.413
919.0,0.5093
920.0,0.5105
921.0,0.53
922.0,0.4795
923.0,0.5117
924.0,0.4918
925.0,0.4812
926.0,0.4865
927.0,0.5392
928.0,0.4109
929.0,0.3792
930.0,0.3046
931.0,0.2874
932.0,0.2137
933.0,0.1773
934.0,0.105
935.0,0.1784
936.0,0.1162
937.0,0.1185
938.0,0.1437
939.0,0.2785
940.0,0.3305
941.0,0.2557
942.0,0.292
943.0,0.197
944.0,0.2031
945.0,0.2625
946.0,0.1403
947.0,0.2654
948.0,0.1961
949.0,0.3487
950.0,0.1073
951.0,0.3422
952.0,0.1926
953.0,0.243
954.0,0.2916
955.0,0.2451
956.0,0.2349
957.0,0.1938
958.0,0.3237
959.0,0.264
960.0,0.2957
961.0,0.3267
962.0,0.3098
963.0,0.3526
964.0,0.3246
965.0,0.3508
966.0,0.352
967.0,0.3509
968.0,0.4549
969.0,0.4763
970.0,0.4396
971.0,0.4964
972.0,0.4761
973.0,0.4214
974.0,0.401
975.0,0.4135
976.0,0.3962
977.0,0.4438
978.0,0.4246
979.0,0.4425
980.0,0.4174
981.0,0.4932
982.0,0.474
983.0,0.4565
984.0,0.5054
985.0,0.4722
986.0,0.5127
987.0,0.5044
988.0,0.5035
989.0,0.5101
990.0,0.5004
991.0,0.5118
992.0,0.5146
993.0,0.5049
994.0,0.5143
995.0,0.5134
996.0,0.5114
997.0,0.512
998.0,0.5097
999.0,0.5078
1000.0,0.5046
1001.0,0.5104
1002.0,0.4981
1003.0,0.5015
1004.0,0.4897
1005.0,0.4711
1006.0,0.4899
1007.0,0.5001
1008.0,0.4977
1009.0,0.4953
1010.0,0.4934
1011.0,0.4975
1012.0,0.4935
1013.0,0.4962
1014.0,0.4927
1015.0,0.4895
1016.0,0.4873
1017.0,0.4886
1018.0,0.4866
1019.0,0.4768
1020.0,0.4841
1021.0,0.4833
1022.0,0.4798
1023.0,0.485
1024.0,0.4793
1025.0,0.4844
1026.0,0.4825
1027.0,0.4813
1028.0,0.4804
1029.0,0.4748
1030.0,0.4778
1031.0,0.476
1032.0,0.4745
1033.0,0.4674
1034.0,0.4674
1035.0,0.4688
1036.0,0.4713
1037.0,0.4637
1038.0,0.4657
1039.0,0.4655
1040.0,0.4636
1041.0,0.4655
1042.0,0.4623
1043.0,0.4609
1044.0,0.4625
1045.0,0.4563
1046.0,0.4513
1047.0,0.4554
1048.0,0.4579
1049.0,0.4563
1050.0,0.4543
1051.0,0.4537
1052.0,0.4519
1053.0,0.4484
1054.0,0.4495
1055.0,0.4498
1056.0,0.4483
1057.0,0.447
1058.0,0.4361
1059.0,0.4367
1060.0,0.4361
1061.0,0.4356
1062.0,0.438
1063.0,0.4338
1064.0,0.4389
1065.0,0.4359
1066.0,0.4271
1067.0,0.4327
1068.0,0.4234
1069.0,0.4102
1070.0,0.4243
1071.0,0.4304
1072.0,0.4258
1073.0,0.4196
1074.0,0.4298
1075.0,0.4101
1076.0,0.4295
1077.0,0.4229
1078.0,0.4153
1079.0,0.4224
1080.0,0.4164
1081.0,0.4039
1082.0,0.4088
1083.0,0.4097
1084.0,0.4033
1085.0,0.4171
1086.0,0.3835
1087.0,0.3937
1088.0,0.4096
1089.0,0.3987
1090.0,0.3911
1091.0,0.4087
1092.0,0.4073
1093.0,0.3505
1094.0,0.3733
1095.0,0.3644
1096.0,0.3505
1097.0,0.3978
1098.0,0.3456
1099.0,0.3597
1100.0,0.3367
1101.0,0.3402
1102.0,0.3263
1103.0,0.3242
1104.0,0.3245
1105.0,0.3519
1106.0,0.2781
1107.0,0.336
1108.0,0.2902
1109.0,0.2897
1110.0,0.3337
1111.0,0.2336
1112.0,0.287
1113.0,0.1903
1114.0,0.2118
1115.0,0.1758
1116.0,0.1451
1117.0,0.05861
1118.0,0.1561
1119.0,0.08162
1120.0,0.1029
1121.0,0.1339
1122.0,0.05998
1123.0,0.09281
1124.0,0.07839
1125.0,0.1013
1126.0,0.03889
1127.0,0.1139
1128.0,0.07205
1129.0,0.07584
1130.0,0.05163
1131.0,0.2069
1132.0,0.164
1133.0,0.1088
1134.0,0.03088
1135.0,0.01142
1136.0,0.09252
1137.0,0.2046
1138.0,0.1452
1139.0,0.2075
1140.0,0.1768
1141.0,0.138
1142.0,0.1568
1143.0,0.2189
1144.0,0.08114
1145.0,0.1048
1146.0,0.1131
1147.0,0.04361
1148.0,0.1896
1149.0,0.1542
1150.0,0.08701
1151.0,0.1442
1152.0,0.1741
1153.0,0.1672
1154.0,0.1024
1155.0,0.2166
1156.0,0.1968
1157.0,0.2181
1158.0,0.2157
1159.0,0.2303
1160.0,0.1996
1161.0,0.2406
1162.0,0.2422
1163.0,0.3178
1164.0,0.276
1165.0,0.2636
1166.0,0.2596
1167.0,0.281
1168.0,0.2847
1169.0,0.2903
1170.0,0.3128
1171.0,0.3054
1172.0,0.3093
1173.0,0.3121
1174.0,0.2305
1175.0,0.3037
1176.0,0.3301
1177.0,0.3193
1178.0,0.2457
1179.0,0.3326
1180.0,0.301
1181.0,0.3103
1182.0,0.2205
1183.0,0.3046
1184.0,0.2876
1185.0,0.2793
1186.0,0.3249
1187.0,0.3114
1188.0,0.2248
1189.0,0.2906
1190.0,0.3175
1191.0,0.3048
1192.0,0.3216
1193.0,0.3093
1194.0,0.318
1195.0,0.3031
1196.0,0.2934
1197.0,0.3169
1198.0,0.2917
1199.0,0.2535
1200.0,0.3057
1201.0,0.2966
1202.0,0.2938
1203.0,0.2915
1204.0,0.2579
1205.0,0.299
1206.0,0.3273
1207.0,0.2936
1208.0,0.2874
1209.0,0.2929
1210.0,0.3039
1211.0,0.2915
1212.0,0.2903
1213.0,0.3177
1214.0,0.2961
1215.0,0.291
1216.0,0.3166
1217.0,0.3093
1218.0,0.3141
1219.0,0.3108
1220.0,0.3143
1221.0,0.3169
1222.0,0.3092
1223.0,0.3068
1224.0,0.3057
1225.0,0.3149
1226.0,0.3163
1227.0,0.2945
1228.0,0.3173
1229.0,0.3163
1230.0,0.3115
1231.0,0.3186
1232.0,0.3168
1233.0,0.3081
1234.0,0.3179
1235.0,0.3162
1236.0,0.3182
1237.0,0.3147
1238.0,0.3171
1239.0,0.3131
1240.0,0.3142
1241.0,0.3132
1242.0,0.3121
1243.0,0.3095
1244.0,0.3119
1245.0,0.3131
1246.0,0.3113
1247.0,0.3102
1248.0,0.3102
1249.0,0.311
1250.0,0.3092
1251.0,0.3056
1252.0,0.3052
1253.0,0.3035
1254.0,0.3011
1255.0,0.3051
1256.0,0.298
1257.0,0.2966
1258.0,0.301
1259.0,0.2923
1260.0,0.2935
1261.0,0.2798
1262.0,0.2728
1263.0,0.2734
1264.0,0.2557
1265.0,0.2716
1266.0,0.2633
1267.0,0.2666
1268.0,0.255
1269.0,0.1733
1270.0,0.2662
1271.0,0.2785
1272.0,0.2791
1273.0,0.2765
1274.0,0.2769
1275.0,0.2804
1276.0,0.2826
1277.0,0.2839
1278.0,0.2882
1279.0,0.2857
1280.0,0.282
1281.0,0.2686
1282.0,0.258
1283.0,0.278
1284.0,0.2848
1285.0,0.2866
1286.0,0.29
1287.0,0.2864
1288.0,0.2861
1289.0,0.2787
1290.0,0.2834
1291.0,0.2871
1292.0,0.2729
1293.0,0.2823
1294.0,0.2805
1295.0,0.2799
1296.0,0.2693
1297.0,0.2564
1298.0,0.2727
1299.0,0.2823
1300.0,0.2446
1301.0,0.251
1302.0,0.2717
1303.0,0.2408
1304.0,0.2107
1305.0,0.2665
1306.0,0.2669
1307.0,0.2133
1308.0,0.2403
1309.0,0.2653
1310.0,0.2095
1311.0,0.2316
1312.0,0.2262
1313.0,0.2226
1314.0,0.2012
1315.0,0.1997
1316.0,0.2288
1317.0,0.2173
1318.0,0.234
1319.0,0.1892
1320.0,0.182
1321.0,0.2098
1322.0,0.2128
1323.0,0.1653
1324.0,0.1855
1325.0,0.2258
1326.0,0.1971
1327.0,0.1888
1328.0,0.1645
1329.0,0.1279
1330.0,0.1643
1331.0,0.1045
1332.0,0.106
1333.0,0.1462
1334.0,0.1216
1335.0,0.1646
1336.0,0.1329
1337.0,0.1191
1338.0,0.1287
1339.0,0.1274
1340.0,0.1226
1341.0,0.1227
1342.0,0.1287
1343.0,0.09374
1344.0,0.05592
1345.0,0.07996
1346.0,0.0442
1347.0,0.0457
1348.0,0.003893
1349.0,0.0129
1350.0,0.01265
1351.0,0.003918
1352.0,0.001359
1353.0,9.329e-05
1354.0,0.0002676
1355.0,3.894e-06
1356.0,4.673e-05
1357.0,7.048e-05
1358.0,4.504e-06
1359.0,8.746e-07
1360.0,2.405e-06
1361.0,6.858e-09
1362.0,2.868e-11
1363.0,3.623e-06
1364.0,1.572e-06
1365.0,1.646e-11
1366.0,1.408e-05
1367.0,5.465e-06
1368.0,3.412e-13
1369.0,6.062e-07
1370.0,3.583e-07
1371.0,2.586e-08
1372.0,3.019e-06
1373.0,4.49e-05
1374.0,0.0001703
1375.0,0.000308
1376.0,0.0002385
1377.0,0.0001147
1378.0,0.001009
1379.0,4.884e-05
1380.0,7.903e-05
1381.0,2.379e-06
1382.0,2.863e-06
1383.0,5.192e-08
1384.0,7.346e-07
1385.0,2.223e-06
1386.0,2.884e-06
1387.0,0.0001966
1388.0,4.058e-06
1389.0,0.0005389
1390.0,0.0004627
1391.0,0.000325
1392.0,2.306e-05
1393.0,0.0001089
1394.0,7.698e-05
1395.0,7.366e-07
1396.0,8.744e-09
1397.0,4.719e-05
1398.0,0.001153
1399.0,0.0007317
1400.0,4.794e-09
1401.0,1.439e-08
1402.0,0.001565
1403.0,0.002062
1404.0,0.0006425
1405.0,4.197e-07
1406.0,0.001807
1407.0,0.0001541
1408.0,0.00146
1409.0,0.0005693
1410.0,0.0004201
1411.0,0.001798
1412.0,0.00226
1413.0,0.01866
1414.0,0.0003262
1415.0,0.0001686
1416.0,0.02738
1417.0,0.009423
1418.0,0.01081
1419.0,0.001736
1420.0,0.006663
1421.0,0.007276
1422.0,0.03541
1423.0,0.007176
1424.0,0.01318
1425.0,0.01976
1426.0,0.02142
1427.0,0.03704
1428.0,0.00373
1429.0,0.02873
1430.0,0.04644
1431.0,0.05039
1432.0,0.002969
1433.0,0.03294
1434.0,0.0172
1435.0,0.01872
1436.0,0.0337
1437.0,0.02584
1438.0,0.01159
1439.0,0.04476
1440.0,0.03366
1441.0,0.02679
1442.0,0.02947
1443.0,0.03529
1444.0,0.04814
1445.0,0.03904
1446.0,0.01799
1447.0,0.02829
1448.0,0.08589
1449.0,0.07593
1450.0,0.02093
1451.0,0.008751
1452.0,0.04699
1453.0,0.06091
1454.0,0.09994
1455.0,0.04885
1456.0,0.06636
1457.0,0.08629
1458.0,0.09911
