interpolation:linear
wavelength,value
280.0,1.4079999999999998e-22
280.5,4.671e-21
281.0,2.5130000000000003e-20
281.5,4.033e-19
282.0,5.636e-19
282.5,1.385e-18
283.0,4.369e-18
283.5,7.118e-18
284.0,1.176e-16
284.5,3.443e-16
285.0,5.807e-16
285.5,2.865e-15
286.0,1.154e-14
286.5,5.194e-14
287.0,1.492e-13
287.5,5.767e-13
288.0,2.051e-12
288.5,6.046e-12
289.0,1.586e-11
289.5,4.745e-11
290.0,1.312e-10
290.5,2.67e-10
291.0,5.726e-10
291.5,1.644e-09
292.0,3.305e-09
292.5,4.627e-09
293.0,9.898e-09
293.5,2.402e-08
294.0,3.753e-08
294.5,5.055e-08
295.0,8.552e-08
295.5,1.42e-07
296.0,2.728e-07
296.5,3.796e-07
297.0,5.112e-07
297.5,1.361e-06
298.0,2.129e-06
298.5,2.128e-06
299.0,4.657e-06
299.5,7.621e-06
300.0,8.301e-06
300.5,1.189e-05
301.0,2.109e-05
301.5,3.288e-05
302.0,2.776e-05
302.5,5.515e-05
303.0,0.000101
303.5,0.0001298
304.0,0.0001258
304.5,0.0002044
305.0,0.0003508
305.5,0.0004355
306.0,0.0004349
306.5,0.0005711
307.0,0.0009548
307.5,0.001427
308.0,0.001536
308.5,0.001923
309.0,0.002195
309.5,0.002894
310.0,0.003103
310.5,0.005189
311.0,0.006865
311.5,0.00678
312.0,0.007594
312.5,0.009958
313.0,0.01123
313.5,0.01051
314.0,0.01438
314.5,0.01434
315.0,0.01925
315.5,0.0152
316.0,0.01461
316.5,0.02277
317.0,0.02823
317.5,0.02869
318.0,0.02367
318.5,0.0327
319.0,0.04095
319.5,0.03061
320.0,0.03651
320.5,0.05094
321.0,0.05002
321.5,0.04843
322.0,0.04648
322.5,0.04065
323.0,0.04335
323.5,0.05724
324.0,0.06758
324.5,0.06666
325.0,0.0552
325.5,0.07503
326.0,0.09403
326.5,0.09772
327.0,0.09608
327.5,0.09122
328.0,0.07733
328.5,0.08627
329.0,0.1083
329.5,0.1247
330.0,0.1244
330.5,0.09601
331.0,0.09664
331.5,0.1009
332.0,0.1134
332.5,0.1143
333.0,0.1128
333.5,0.09917
334.0,0.1011
334.5,0.1206
335.0,0.1156
335.5,0.1359
336.0,0.09403
336.5,0.1085
337.0,0.0878
337.5,0.1087
338.0,0.1091
338.5,0.1271
339.0,0.126
339.5,0.1212
340.0,0.1413
340.5,0.1277
341.0,0.1254
341.5,0.1156
342.0,0.1383
342.5,0.1296
343.0,0.1423
343.5,0.1339
344.0,0.09829
344.5,0.09979
345.0,0.1326
345.5,0.1357
346.0,0.1155
346.5,0.131
347.0,0.1404
347.5,0.1136
348.0,0.1298
348.5,0.13
349.0,0.1207
349.5,0.1196
350.0,0.148
350.5,0.1562
351.0,0.1395
351.5,0.1353
352.0,0.1456
352.5,0.1139
353.0,0.1437
353.5,0.1538
354.0,0.1598
354.5,0.1622
355.0,0.1616
355.5,0.1462
356.0,0.1531
356.5,0.1308
357.0,0.1081
357.5,0.1324
358.0,0.105
358.5,0.08979
359.0,0.1256
359.5,0.16
360.0,0.1698
360.5,0.1358
361.0,0.1239
361.5,0.1429
362.0,0.1238
362.5,0.1715
363.0,0.1542
363.5,0.1422
364.0,0.1741
364.5,0.1489
365.0,0.1517
365.5,0.1906
366.0,0.2022
366.5,0.1901
367.0,0.1853
367.5,0.1924
368.0,0.1685
368.5,0.1702
369.0,0.184
369.5,0.1962
370.0,0.2094
370.5,0.1626
371.0,0.1739
371.5,0.2178
372.0,0.1446
372.5,0.1735
373.0,0.1767
373.5,0.1151
374.0,0.1673
374.5,0.1387
375.0,0.1349
375.5,0.2016
376.0,0.1672
376.5,0.1734
377.0,0.1837
377.5,0.2151
378.0,0.2333
378.5,0.2206
379.0,0.1822
379.5,0.1665
380.0,0.1732
380.5,0.21
381.0,0.2106
381.5,0.1672
382.0,0.1486
382.5,0.1269
383.0,0.1176
383.5,0.1134
384.0,0.1252
384.5,0.1842
385.0,0.1829
385.5,0.1705
386.0,0.1461
386.5,0.1922
387.0,0.1598
387.5,0.1796
388.0,0.166
388.5,0.1642
389.0,0.1774
389.5,0.215
390.0,0.216
390.5,0.1989
391.0,0.2344
391.5,0.2392
392.0,0.2016
392.5,0.1807
393.0,0.1007
393.5,0.07324
394.0,0.1491
394.5,0.1898
395.0,0.2318
395.5,0.2356
396.0,0.2044
396.5,0.1196
397.0,0.08987
397.5,0.1829
398.0,0.2562
398.5,0.265
399.0,0.2874
399.5,0.2867
400.0,0.2977
401.0,0.2996
402.0,0.3167
403.0,0.3015
404.0,0.2972
405.0,0.2976
406.0,0.2934
407.0,0.2892
408.0,0.3007
409.0,0.3223
410.0,0.2821
411.0,0.306
412.0,0.3294
413.0,0.3215
414.0,0.326
415.0,0.3275
416.0,0.3338
417.0,0.326
418.0,0.3204
419.0,0.3251
420.0,0.324
421.0,0.3395
422.0,0.323
423.0,0.316
424.0,0.3344
425.0,0.3343
426.0,0.3264
427.0,0.3207
428.0,0.3127
429.0,0.2969
430.0,0.2602
431.0,0.258
432.0,0.3337
433.0,0.3359
434.0,0.3122
435.0,0.3262
436.0,0.3683
437.0,0.3641
438.0,0.332
439.0,0.343
440.0,0.3544
441.0,0.3678
442.0,0.3948
443.0,0.3844
444.0,0.3934
445.0,0.385
446.0,0.3684
447.0,0.3991
448.0,0.4051
449.0,0.4077
450.0,0.4196
451.0,0.4356
452.0,0.4201
453.0,0.3956
454.0,0.4137
455.0,0.4164
456.0,0.4266
457.0,0.4339
458.0,0.4187
459.0,0.4169
460.0,0.4178
461.0,0.4277
462.0,0.4317
463.0,0.4288
464.0,0.4227
465.0,0.4184
466.0,0.4231
467.0,0.4152
468.0,0.4202
469.0,0.4225
470.0,0.409
471.0,0.4088
472.0,0.4308
473.0,0.4252
474.0,0.4253
475.0,0.4283
476.0,0.4147
477.0,0.4152
478.0,0.427
479.0,0.4249
480.0,0.4262
481.0,0.4349
482.0,0.4381
483.0,0.4338
484.0,0.4255
485.0,0.4061
486.0,0.3557
487.0,0.3734
488.0,0.4097
489.0,0.4107
490.0,0.4326
491.0,0.4256
492.0,0.4021
493.0,0.4154
494.0,0.4198
495.0,0.4235
496.0,0.4262
497.0,0.4327
498.0,0.4123
499.0,0.4172
500.0,0.4045
501.0,0.3965
502.0,0.3898
503.0,0.4045
504.0,0.3909
505.0,0.4075
506.0,0.4207
507.0,0.4005
508.0,0.3891
509.0,0.4008
510.0,0.3994
511.0,0.4108
512.0,0.4157
513.0,0.3936
514.0,0.3912
515.0,0.3873
516.0,0.3862
517.0,0.3434
518.0,0.3609
519.0,0.3785
520.0,0.3921
521.0,0.3957
522.0,0.3957
523.0,0.3884
524.0,0.4017
525.0,0.4055
526.0,0.387
527.0,0.364
528.0,0.3844
529.0,0.4047
530.0,0.3985
531.0,0.4041
532.0,0.39
533.0,0.3786
534.0,0.3901
535.0,0.3991
536.0,0.4031
537.0,0.3876
538.0,0.3946
539.0,0.3913
540.0,0.3749
541.0,0.3764
542.0,0.3877
543.0,0.3844
544.0,0.3902
545.0,0.3891
546.0,0.39
547.0,0.3906
548.0,0.3863
549.0,0.3877
550.0,0.3924
551.0,0.3878
552.0,0.3905
553.0,0.3833
554.0,0.3924
555.0,0.3929
556.0,0.3877
557.0,0.3753
558.0,0.3719
559.0,0.3644
560.0,0.3686
561.0,0.3728
562.0,0.3695
563.0,0.3788
564.0,0.3679
565.0,0.3642
566.0,0.3583
567.0,0.3644
568.0,0.3594
569.0,0.3475
570.0,0.3478
571.0,0.3465
572.0,0.3526
573.0,0.3559
574.0,0.3543
575.0,0.3469
576.0,0.3438
577.0,0.3479
578.0,0.3436
579.0,0.3466
580.0,0.3557
581.0,0.3594
582.0,0.3679
583.0,0.3702
584.0,0.3744
585.0,0.3658
586.0,0.3583
587.0,0.3651
588.0,0.3521
589.0,0.3039
590.0,0.3184
591.0,0.3418
592.0,0.3346
593.0,0.3433
594.0,0.3394
595.0,0.3278
596.0,0.3475
597.0,0.342
598.0,0.3432
599.0,0.3443
600.0,0.3465
601.0,0.345
602.0,0.3429
603.0,0.3492
604.0,0.3554
605.0,0.354
606.0,0.3532
607.0,0.3576
608.0,0.3544
609.0,0.3556
610.0,0.3539
611.0,0.3562
612.0,0.3556
613.0,0.3515
614.0,0.3474
615.0,0.3556
616.0,0.3444
617.0,0.3441
618.0,0.3578
619.0,0.3544
620.0,0.3566
621.0,0.3564
622.0,0.3518
623.0,0.346
624.0,0.3406
625.0,0.3397
626.0,0.3446
627.0,0.3468
628.0,0.3047
629.0,0.3318
630.0,0.3235
631.0,0.3374
632.0,0.3346
633.0,0.3475
634.0,0.3463
635.0,0.3529
636.0,0.3494
637.0,0.3562
638.0,0.3611
639.0,0.3579
640.0,0.3554
641.0,0.3559
642.0,0.3551
643.0,0.36
644.0,0.3597
645.0,0.3598
646.0,0.3491
647.0,0.3395
648.0,0.3402
649.0,0.3327
650.0,0.3414
651.0,0.3574
652.0,0.3357
653.0,0.3531
654.0,0.3497
655.0,0.3332
656.0,0.2978
657.0,0.3062
658.0,0.3454
659.0,0.3488
660.0,0.3508
661.0,0.3536
662.0,0.3531
663.0,0.3466
664.0,0.3526
665.0,0.3544
666.0,0.3553
667.0,0.3557
668.0,0.3567
669.0,0.3627
670.0,0.3615
671.0,0.3618
672.0,0.359
673.0,0.3648
674.0,0.3638
675.0,0.3608
676.0,0.3636
677.0,0.3603
678.0,0.3616
679.0,0.356
680.0,0.359
681.0,0.3568
682.0,0.3564
683.0,0.3558
684.0,0.3539
685.0,0.3573
686.0,0.3548
687.0,0.1584
688.0,0.2175
689.0,0.2194
690.0,0.2423
691.0,0.2698
692.0,0.2921
693.0,0.289
694.0,0.2888
695.0,0.3109
696.0,0.3121
697.0,0.3427
698.0,0.3371
699.0,0.321
700.0,0.3167
701.0,0.3102
702.0,0.3156
703.0,0.3171
704.0,0.3321
705.0,0.3325
706.0,0.334
707.0,0.3351
708.0,0.3355
709.0,0.3394
710.0,0.3376
711.0,0.3383
712.0,0.339
713.0,0.334
714.0,0.3358
715.0,0.3218
716.0,0.3211
717.0,0.2497
718.0,0.2273
719.0,0.206
720.0,0.2128
721.0,0.2508
722.0,0.3045
723.0,0.2749
724.0,0.237
725.0,0.2299
726.0,0.2414
727.0,0.2521
728.0,0.2281
729.0,0.2465
730.0,0.2582
731.0,0.2454
732.0,0.2731
733.0,0.2986
734.0,0.3089
735.0,0.3008
736.0,0.2999
737.0,0.3012
738.0,0.3138
739.0,0.3078
740.0,0.3182
741.0,0.3164
742.0,0.3183
743.0,0.3268
744.0,0.3268
745.0,0.3277
746.0,0.3292
747.0,0.3301
748.0,0.3295
749.0,0.3258
750.0,0.3257
751.0,0.3225
752.0,0.324
753.0,0.3257
754.0,0.3265
755.0,0.3246
756.0,0.3246
757.0,0.325
758.0,0.3208
759.0,0.309
760.0,0.01015
761.0,0.00341
762.0,0.08402
763.0,0.02192
764.0,0.04765
765.0,0.08379
766.0,0.1305
767.0,0.2002
768.0,0.2653
769.0,0.2793
770.0,0.2986
771.0,0.3055
772.0,0.3075
773.0,0.31
774.0,0.3089
775.0,0.3067
776.0,0.3106
777.0,0.3065
778.0,0.3046
779.0,0.3049
780.0,0.3033
781.0,0.3037
782.0,0.3057
783.0,0.3005
784.0,0.3021
785.0,0.2995
786.0,0.3025
787.0,0.2932
788.0,0.2877
789.0,0.2875
790.0,0.2747
791.0,0.2823
792.0,0.2811
793.0,0.276
794.0,0.286
795.0,0.2893
796.0,0.2731
797.0,0.2727
798.0,0.2881
799.0,0.2849
800.0,0.2783
801.0,0.2756
802.0,0.2746
803.0,0.2715
804.0,0.2728
805.0,0.2742
806.0,0.2857
807.0,0.2814
808.0,0.2819
809.0,0.2737
810.0,0.2698
811.0,0.2666
812.0,0.2536
813.0,0.2465
814.0,0.2038
815.0,0.2037
816.0,0.1877
817.0,0.1918
818.0,0.1816
819.0,0.2141
820.0,0.1979
821.0,0.2483
822.0,0.2384
823.0,0.1374
824.0,0.2249
825.0,0.2441
826.0,0.2291
827.0,0.2476
828.0,0.1936
829.0,0.229
830.0,0.2248
831.0,0.2255
832.0,0.2157
833.0,0.2368
834.0,0.2236
835.0,0.2578
836.0,0.2382
837.0,0.2586
838.0,0.2462
839.0,0.2552
840.0,0.2618
841.0,0.2563
842.0,0.2597
843.0,0.2626
844.0,0.2573
845.0,0.2681
846.0,0.2675
847.0,0.2634
848.0,0.2604
849.0,0.253
850.0,0.2426
851.0,0.2554
852.0,0.2543
853.0,0.2459
854.0,0.2113
855.0,0.2335
856.0,0.2546
857.0,0.2612
858.0,0.2589
859.0,0.2597
860.0,0.2606
861.0,0.2591
862.0,0.2633
863.0,0.2696
864.0,0.2562
865.0,0.2541
866.0,0.2284
867.0,0.2384
868.0,0.2595
869.0,0.2542
870.0,0.2615
871.0,0.2579
872.0,0.2571
873.0,0.2566
874.0,0.2535
875.0,0.2484
876.0,0.2509
877.0,0.2535
878.0,0.256
879.0,0.2521
880.0,0.2467
881.0,0.2424
882.0,0.2473
883.0,0.2488
884.0,0.2474
885.0,0.2492
886.0,0.2352
887.0,0.2396
888.0,0.2421
889.0,0.2468
890.0,0.2422
891.0,0.2431
892.0,0.2328
893.0,0.2226
894.0,0.208
895.0,0.1883
896.0,0.1755
897.0,0.1418
898.0,0.1588
899.0,0.1111
900.0,0.1685
901.0,0.1164
902.0,0.1494
903.0,0.1461
904.0,0.2061
905.0,0.1963
906.0,0.1811
907.0,0.1322
908.0,0.138
909.0,0.1549
910.0,0.1263
911.0,0.1432
912.0,0.1498
913.0,0.1277
914.0,0.1289
915.0,0.1385
916.0,0.116
917.0,0.1575
918.0,0.118
919.0,0.1642
920.0,0.1746
921.0,0.1807
922.0,0.1536
923.0,0.1755
924.0,0.1549
925.0,0.1522
926.0,0.1523
927.0,0.1781
928.0,0.1085
929.0,0.09345
930.0,0.06461
931.0,0.06102
932.0,0.0359
933.0,0.02606
934.0,0.008659
935.0,0.02901
936.0,0.0141
937.0,0.01421
938.0,0.0188
939.0,0.05888
940.0,0.07728
941.0,0.05047
942.0,0.0622
943.0,0.03521
944.0,0.04297
945.0,0.0538
946.0,0.02008
947.0,0.05198
948.0,0.03754
949.0,0.07742
950.0,0.0121
951.0,0.07695
952.0,0.03227
953.0,0.04764
954.0,0.06543
955.0,0.04899
956.0,0.05571
957.0,0.03195
958.0,0.0863
959.0,0.05912
960.0,0.06634
961.0,0.08201
962.0,0.07735
963.0,0.09597
964.0,0.08605
965.0,0.09513
966.0,0.09464
967.0,0.09308
968.0,0.1532
969.0,0.1553
970.0,0.1404
971.0,0.1734
972.0,0.1629
973.0,0.1291
974.0,0.1218
975.0,0.1302
976.0,0.1164
977.0,0.1479
978.0,0.134
979.0,0.1437
980.0,0.1335
981.0,0.1727
982.0,0.1604
983.0,0.1515
984.0,0.1841
985.0,0.1594
986.0,0.1913
987.0,0.1834
988.0,0.1834
989.0,0.1933
990.0,0.1822
991.0,0.1934
992.0,0.195
993.0,0.1864
994.0,0.1954
995.0,0.1959
996.0,0.1943
997.0,0.1949
998.0,0.1937
999.0,0.1932
1000.0,0.1908
1001.0,0.1944
1002.0,0.1845
1003.0,0.1907
1004.0,0.1848
1005.0,0.1797
1006.0,0.1859
1007.0,0.1903
1008.0,0.1884
1009.0,0.1865
1010.0,0.1853
1011.0,0.1894
1012.0,0.1869
1013.0,0.1892
1014.0,0.1879
1015.0,0.1865
1016.0,0.1856
1017.0,0.1858
1018.0,0.1857
1019.0,0.18
1020.0,0.1845
1021.0,0.1845
1022.0,0.1825
1023.0,0.1843
1024.0,0.1801
1025.0,0.1848
1026.0,0.1835
1027.0,0.1832
1028.0,0.1827
1029.0,0.1803
1030.0,0.1822
1031.0,0.1812
1032.0,0.1809
1033.0,0.1781
1034.0,0.1782
1035.0,0.1787
1036.0,0.1795
1037.0,0.1766
1038.0,0.1773
1039.0,0.1771
1040.0,0.1764
1041.0,0.1769
1042.0,0.1756
1043.0,0.175
1044.0,0.1755
1045.0,0.173
1046.0,0.171
1047.0,0.1724
1048.0,0.1732
1049.0,0.1724
1050.0,0.1715
1051.0,0.1711
1052.0,0.1702
1053.0,0.1686
1054.0,0.1687
1055.0,0.1686
1056.0,0.1676
1057.0,0.1669
1058.0,0.1625
1059.0,0.1624
1060.0,0.162
1061.0,0.1617
1062.0,0.1622
1063.0,0.1604
1064.0,0.1624
1065.0,0.1606
1066.0,0.1579
1067.0,0.1598
1068.0,0.1558
1069.0,0.1514
1070.0,0.1561
1071.0,0.1601
1072.0,0.1571
1073.0,0.155
1074.0,0.1608
1075.0,0.1485
1076.0,0.1604
1077.0,0.1552
1078.0,0.1511
1079.0,0.1587
1080.0,0.1529
1081.0,0.1457
1082.0,0.1518
1083.0,0.1533
1084.0,0.1446
1085.0,0.1535
1086.0,0.1346
1087.0,0.1425
1088.0,0.1525
1089.0,0.1434
1090.0,0.1384
1091.0,0.1509
1092.0,0.1512
1093.0,0.1175
1094.0,0.137
1095.0,0.1228
1096.0,0.1147
1097.0,0.1478
1098.0,0.1112
1099.0,0.1175
1100.0,0.1054
1101.0,0.1082
1102.0,0.1004
1103.0,0.09743
1104.0,0.09789
1105.0,0.1139
1106.0,0.07139
1107.0,0.1053
1108.0,0.07993
1109.0,0.08142
1110.0,0.1021
1111.0,0.05689
1112.0,0.08136
1113.0,0.04045
1114.0,0.04552
1115.0,0.03674
1116.0,0.02396
1117.0,0.004829
1118.0,0.02714
1119.0,0.009517
1120.0,0.01136
1121.0,0.0169
1122.0,0.004416
1123.0,0.0104
1124.0,0.008723
1125.0,0.01235
1126.0,0.001954
1127.0,0.01418
1128.0,0.005574
1129.0,0.006139
1130.0,0.00369
1131.0,0.03632
1132.0,0.02648
1133.0,0.01193
1134.0,0.001465
1135.0,0.000651
1136.0,0.008483
1137.0,0.0337
1138.0,0.02269
1139.0,0.04609
1140.0,0.0337
1141.0,0.02174
1142.0,0.02705
1143.0,0.04404
1144.0,0.01041
1145.0,0.01144
1146.0,0.01229
1147.0,0.002135
1148.0,0.03714
1149.0,0.02638
1150.0,0.01237
1151.0,0.02254
1152.0,0.03165
1153.0,0.03413
1154.0,0.0116
1155.0,0.04796
1156.0,0.04055
1157.0,0.05141
1158.0,0.05062
1159.0,0.05716
1160.0,0.04705
1161.0,0.06548
1162.0,0.06492
1163.0,0.1025
1164.0,0.08269
1165.0,0.07278
1166.0,0.07676
1167.0,0.08607
1168.0,0.08594
1169.0,0.08925
1170.0,0.1017
1171.0,0.09911
1172.0,0.1042
1173.0,0.1016
1174.0,0.06247
1175.0,0.1023
1176.0,0.1191
1177.0,0.1097
1178.0,0.07457
1179.0,0.12
1180.0,0.1
1181.0,0.1034
1182.0,0.06231
1183.0,0.1032
1184.0,0.09361
1185.0,0.08744
1186.0,0.1134
1187.0,0.1048
1188.0,0.06157
1189.0,0.09724
1190.0,0.1116
1191.0,0.0995
1192.0,0.1138
1193.0,0.1069
1194.0,0.1116
1195.0,0.1012
1196.0,0.09511
1197.0,0.1134
1198.0,0.1019
1199.0,0.07791
1200.0,0.1055
1201.0,0.09839
1202.0,0.1008
1203.0,0.098
1204.0,0.08223
1205.0,0.1055
1206.0,0.1208
1207.0,0.09915
1208.0,0.1003
1209.0,0.1027
1210.0,0.1091
1211.0,0.1009
1212.0,0.09445
1213.0,0.1143
1214.0,0.09856
1215.0,0.09628
1216.0,0.1146
1217.0,0.1099
1218.0,0.1135
1219.0,0.111
1220.0,0.1138
1221.0,0.116
1222.0,0.1123
1223.0,0.1104
1224.0,0.1078
1225.0,0.1149
1226.0,0.1171
1227.0,0.1032
1228.0,0.1187
1229.0,0.1172
1230.0,0.1143
1231.0,0.1206
1232.0,0.1198
1233.0,0.1115
1234.0,0.1215
1235.0,0.1201
1236.0,0.1215
1237.0,0.1181
1238.0,0.1211
1239.0,0.1195
1240.0,0.1202
1241.0,0.1185
1242.0,0.1192
1243.0,0.1183
1244.0,0.1188
1245.0,0.1195
1246.0,0.1189
1247.0,0.1181
1248.0,0.1174
1249.0,0.1183
1250.0,0.1172
1251.0,0.115
1252.0,0.1159
1253.0,0.1134
1254.0,0.1111
1255.0,0.1154
1256.0,0.1092
1257.0,0.108
1258.0,0.1124
1259.0,0.1038
1260.0,0.1049
1261.0,0.09366
1262.0,0.08812
1263.0,0.08815
1264.0,0.07541
1265.0,0.08769
1266.0,0.08079
1267.0,0.0847
1268.0,0.07642
1269.0,0.02806
1270.0,0.08341
1271.0,0.09407
1272.0,0.09491
1273.0,0.0933
1274.0,0.09443
1275.0,0.09676
1276.0,0.09878
1277.0,0.1009
1278.0,0.1049
1279.0,0.1039
1280.0,0.1027
1281.0,0.09902
1282.0,0.09711
1283.0,0.1042
1284.0,0.1064
1285.0,0.1074
1286.0,0.1098
1287.0,0.1064
1288.0,0.1069
1289.0,0.1001
1290.0,0.1061
1291.0,0.1083
1292.0,0.09566
1293.0,0.1048
1294.0,0.1038
1295.0,0.1011
1296.0,0.09302
1297.0,0.08554
1298.0,0.09761
1299.0,0.1054
1300.0,0.08032
1301.0,0.08421
1302.0,0.09749
1303.0,0.08006
1304.0,0.06056
1305.0,0.09509
1306.0,0.09407
1307.0,0.06469
1308.0,0.08156
1309.0,0.09185
1310.0,0.06265
1311.0,0.07631
1312.0,0.07331
1313.0,0.06975
1314.0,0.05955
1315.0,0.05717
1316.0,0.07358
1317.0,0.06848
1318.0,0.07786
1319.0,0.0517
1320.0,0.05173
1321.0,0.0636
1322.0,0.06245
1323.0,0.03985
1324.0,0.05113
1325.0,0.07132
1326.0,0.05677
1327.0,0.0528
1328.0,0.04294
1329.0,0.02635
1330.0,0.03755
1331.0,0.01689
1332.0,0.0189
1333.0,0.02736
1334.0,0.0273
1335.0,0.03892
1336.0,0.02724
1337.0,0.02344
1338.0,0.02489
1339.0,0.02548
1340.0,0.02654
1341.0,0.0217
1342.0,0.02341
1343.0,0.01025
1344.0,0.006678
1345.0,0.009062
1346.0,0.002311
1347.0,0.00203
1348.0,3.711e-05
1349.0,0.000172
1350.0,0.0002121
1351.0,1.691e-05
1352.0,1.493e-06
1353.0,5.741e-08
1354.0,2.539e-07
1355.0,1.391e-09
1356.0,2.788e-08
1357.0,4.213e-08
1358.0,1.638e-09
1359.0,2.023e-10
1360.0,7.36e-10
1361.0,8.169e-13
1362.0,2.234e-15
1363.0,9.833e-10
1364.0,4.065e-10
1365.0,7.801e-16
1366.0,4.268e-09
1367.0,1.755e-09
1368.0,6.024e-18
1369.0,1.498e-10
1370.0,7.362e-11
1371.0,4.171e-12
1372.0,9.535e-10
1373.0,2.007e-08
1374.0,1.047e-07
1375.0,1.777e-07
1376.0,2.269e-07
1377.0,9.782e-08
1378.0,9.506e-07
1379.0,4.253e-08
1380.0,4.742e-08
1381.0,1.192e-09
1382.0,8.326e-10
1383.0,1.241e-11
1384.0,1.621e-10
1385.0,8.059e-10
1386.0,7.302e-10
1387.0,9.295e-08
1388.0,2.021e-09
1389.0,3.884e-07
1390.0,3.166e-07
1391.0,2.122e-07
1392.0,1.41e-08
1393.0,8.508e-08
1394.0,3.127e-08
1395.0,2.249e-10
1396.0,1.063e-12
1397.0,2.999e-08
1398.0,9.509e-07
1399.0,6.288e-07
1400.0,4.547e-13
1401.0,1.887e-12
1402.0,5.852e-06
1403.0,5.177e-06
1404.0,1.304e-06
1405.0,1.05e-10
1406.0,2.201e-06
1407.0,4.022e-07
1408.0,1.952e-06
1409.0,4.335e-07
1410.0,5.593e-07
1411.0,4.896e-06
1412.0,9.844e-06
1413.0,0.0002538
1414.0,4.91e-07
1415.0,1.885e-07
1416.0,0.001076
1417.0,0.0001771
1418.0,0.0001239
1419.0,1.677e-05
1420.0,7.428e-05
1421.0,0.0001196
1422.0,0.001394
1423.0,0.0002458
