interpolation:linear
wavelength,value
280.0,1.1569999999999999e-22
280.5,3.847e-21
281.0,2.073e-20
281.5,4.368e-19
282.0,5.447e-19
282.5,1.329e-18
283.0,4.182e-18
283.5,6.811e-18
284.0,1.125e-16
284.5,3.294e-16
285.0,5.749e-16
285.5,2.801e-15
286.0,1.126e-14
286.5,5.052e-14
287.0,1.45e-13
287.5,5.6e-13
288.0,1.986e-12
288.5,5.815e-12
289.0,1.52e-11
289.5,4.536e-11
290.0,1.253e-10
290.5,2.55e-10
291.0,5.47e-10
291.5,1.571e-09
292.0,3.169e-09
292.5,4.43e-09
293.0,9.46e-09
293.5,2.29e-08
294.0,3.576e-08
294.5,4.759e-08
295.0,8.041e-08
295.5,1.348e-07
296.0,2.577e-07
296.5,3.569e-07
297.0,4.785e-07
297.5,1.265e-06
298.0,1.965e-06
298.5,1.952e-06
299.0,4.246e-06
299.5,6.869e-06
300.0,7.429e-06
300.5,1.056e-05
301.0,1.848e-05
301.5,2.846e-05
302.0,2.387e-05
302.5,4.682e-05
303.0,8.487e-05
303.5,0.0001084
304.0,0.0001048
304.5,0.0001692
305.0,0.0002878
305.5,0.0003553
306.0,0.000354
306.5,0.0004632
307.0,0.0007686
307.5,0.00114
308.0,0.001226
308.5,0.001529
309.0,0.00179
309.5,0.002389
310.0,0.002575
310.5,0.004319
311.0,0.005741
311.5,0.00568
312.0,0.006427
312.5,0.008484
313.0,0.009602
313.5,0.00896
314.0,0.01235
314.5,0.01246
315.0,0.01675
315.5,0.01316
316.0,0.01276
316.5,0.02004
317.0,0.02483
317.5,0.02518
318.0,0.02088
318.5,0.02915
319.0,0.03668
319.5,0.02719
320.0,0.03239
320.5,0.04566
321.0,0.04526
321.5,0.04386
322.0,0.04166
322.5,0.03646
323.0,0.03913
323.5,0.05224
324.0,0.06175
324.5,0.06071
325.0,0.04988
325.5,0.06817
326.0,0.08598
326.5,0.08971
327.0,0.08807
327.5,0.08344
328.0,0.07035
328.5,0.079
329.0,0.09968
329.5,0.115
330.0,0.1145
330.5,0.08804
331.0,0.08848
331.5,0.09269
332.0,0.1046
332.5,0.1055
333.0,0.1041
333.5,0.09122
334.0,0.09299
334.5,0.1113
335.0,0.1068
335.5,0.1257
336.0,0.08703
336.5,0.1002
337.0,0.08094
337.5,0.1001
338.0,0.1008
338.5,0.1176
339.0,0.1167
339.5,0.1122
340.0,0.1305
340.5,0.118
341.0,0.1161
341.5,0.107
342.0,0.1281
342.5,0.12
343.0,0.1317
343.5,0.1239
344.0,0.09085
344.5,0.09234
345.0,0.1228
345.5,0.1256
346.0,0.107
346.5,0.1213
347.0,0.13
347.5,0.1051
348.0,0.1202
348.5,0.1204
349.0,0.1118
349.5,0.1107
350.0,0.1371
350.5,0.1447
351.0,0.1291
351.5,0.1252
352.0,0.1348
352.5,0.1054
353.0,0.133
353.5,0.1424
354.0,0.148
354.5,0.1502
355.0,0.1497
355.5,0.1354
356.0,0.1418
356.5,0.1211
357.0,0.1001
357.5,0.1226
358.0,0.09725
358.5,0.08315
359.0,0.1163
359.5,0.1482
360.0,0.1572
360.5,0.1258
361.0,0.1148
361.5,0.1324
362.0,0.1146
362.5,0.1588
363.0,0.1428
363.5,0.1317
364.0,0.1612
364.5,0.1379
365.0,0.1405
365.5,0.1765
366.0,0.1872
366.5,0.1761
367.0,0.1716
367.5,0.1782
368.0,0.1561
368.5,0.1576
369.0,0.1704
369.5,0.1817
370.0,0.1939
370.5,0.1506
371.0,0.1611
371.5,0.2017
372.0,0.134
372.5,0.1607
373.0,0.1637
373.5,0.1066
374.0,0.155
374.5,0.1285
375.0,0.125
375.5,0.1867
376.0,0.1549
376.5,0.1606
377.0,0.1702
377.5,0.1993
378.0,0.2161
378.5,0.2044
379.0,0.1688
379.5,0.1542
380.0,0.1604
380.5,0.1945
381.0,0.1952
381.5,0.1549
382.0,0.1377
382.5,0.1176
383.0,0.109
383.5,0.1051
384.0,0.116
384.5,0.1707
385.0,0.1695
385.5,0.158
386.0,0.1354
386.5,0.1781
387.0,0.1481
387.5,0.1665
388.0,0.1538
388.5,0.1522
389.0,0.1644
389.5,0.1993
390.0,0.2002
390.5,0.1844
391.0,0.2173
391.5,0.2218
392.0,0.1869
392.5,0.1675
393.0,0.09333
393.5,0.06791
394.0,0.1383
394.5,0.176
395.0,0.2149
395.5,0.2184
396.0,0.1896
396.5,0.111
397.0,0.08335
397.5,0.1696
398.0,0.2376
398.5,0.2458
399.0,0.2666
399.5,0.2659
400.0,0.2762
401.0,0.2777
402.0,0.2936
403.0,0.2795
404.0,0.2756
405.0,0.2759
406.0,0.272
407.0,0.2682
408.0,0.2788
409.0,0.2989
410.0,0.2616
411.0,0.2839
412.0,0.3056
413.0,0.2983
414.0,0.3025
415.0,0.3039
416.0,0.3098
417.0,0.3026
418.0,0.2974
419.0,0.3018
420.0,0.3008
421.0,0.3152
422.0,0.3
423.0,0.2934
424.0,0.3106
425.0,0.3105
426.0,0.3032
427.0,0.2979
428.0,0.2905
429.0,0.2758
430.0,0.2418
431.0,0.2397
432.0,0.3101
433.0,0.3122
434.0,0.2901
435.0,0.3032
436.0,0.3424
437.0,0.3385
438.0,0.3087
439.0,0.3189
440.0,0.3295
441.0,0.342
442.0,0.3672
443.0,0.3575
444.0,0.3659
445.0,0.3581
446.0,0.3427
447.0,0.3714
448.0,0.3769
449.0,0.3794
450.0,0.3905
451.0,0.4054
452.0,0.391
453.0,0.3683
454.0,0.3852
455.0,0.3877
456.0,0.3972
457.0,0.404
458.0,0.3899
459.0,0.3881
460.0,0.389
461.0,0.3982
462.0,0.4019
463.0,0.3993
464.0,0.3937
465.0,0.3898
466.0,0.3943
467.0,0.3869
468.0,0.3916
469.0,0.3937
470.0,0.3811
471.0,0.3809
472.0,0.4014
473.0,0.3962
474.0,0.3963
475.0,0.399
476.0,0.3862
477.0,0.3867
478.0,0.3977
479.0,0.3957
480.0,0.397
481.0,0.4052
482.0,0.4082
483.0,0.4043
484.0,0.3966
485.0,0.3785
486.0,0.3316
487.0,0.3482
488.0,0.382
489.0,0.383
490.0,0.4034
491.0,0.3969
492.0,0.375
493.0,0.3875
494.0,0.3916
495.0,0.3951
496.0,0.3976
497.0,0.4037
498.0,0.3847
499.0,0.3892
500.0,0.3774
501.0,0.3698
502.0,0.3634
503.0,0.377
504.0,0.3641
505.0,0.3798
506.0,0.392
507.0,0.3732
508.0,0.3627
509.0,0.3737
510.0,0.3724
511.0,0.3832
512.0,0.3877
513.0,0.3671
514.0,0.3649
515.0,0.3613
516.0,0.3602
517.0,0.3203
518.0,0.3366
519.0,0.353
520.0,0.3657
521.0,0.3691
522.0,0.3691
523.0,0.3622
524.0,0.3745
525.0,0.378
526.0,0.3608
527.0,0.3392
528.0,0.3582
529.0,0.377
530.0,0.3712
531.0,0.3764
532.0,0.3633
533.0,0.3527
534.0,0.3634
535.0,0.3718
536.0,0.3756
537.0,0.3611
538.0,0.3677
539.0,0.3646
540.0,0.3493
541.0,0.3506
542.0,0.361
543.0,0.358
544.0,0.3634
545.0,0.3624
546.0,0.3632
547.0,0.3638
548.0,0.3598
549.0,0.3612
550.0,0.3655
551.0,0.3612
552.0,0.3637
553.0,0.3571
554.0,0.3655
555.0,0.366
556.0,0.3611
557.0,0.3495
558.0,0.3463
559.0,0.3393
560.0,0.3431
561.0,0.347
562.0,0.3438
563.0,0.3524
564.0,0.3422
565.0,0.3387
566.0,0.3332
567.0,0.3388
568.0,0.334
569.0,0.3226
570.0,0.323
571.0,0.3218
572.0,0.3273
573.0,0.3303
574.0,0.3287
575.0,0.3218
576.0,0.3189
577.0,0.3227
578.0,0.3189
579.0,0.3218
580.0,0.3305
581.0,0.3341
582.0,0.3422
583.0,0.3444
584.0,0.3484
585.0,0.3405
586.0,0.3335
587.0,0.3398
588.0,0.3273
589.0,0.2817
590.0,0.2952
591.0,0.3174
592.0,0.3105
593.0,0.3189
594.0,0.3151
595.0,0.3041
596.0,0.323
597.0,0.3176
598.0,0.3189
599.0,0.3201
600.0,0.3223
601.0,0.321
602.0,0.319
603.0,0.325
604.0,0.3308
605.0,0.3295
606.0,0.3289
607.0,0.333
608.0,0.3301
609.0,0.3313
610.0,0.3297
611.0,0.3319
612.0,0.3315
613.0,0.3277
614.0,0.3239
615.0,0.3316
616.0,0.3212
617.0,0.321
618.0,0.3337
619.0,0.3306
620.0,0.3327
621.0,0.3325
622.0,0.3281
623.0,0.3227
624.0,0.3177
625.0,0.3169
626.0,0.3214
627.0,0.3233
628.0,0.2823
629.0,0.3087
630.0,0.3009
631.0,0.3144
632.0,0.312
633.0,0.3243
634.0,0.3234
635.0,0.3296
636.0,0.3265
637.0,0.3328
638.0,0.3376
639.0,0.3347
640.0,0.3324
641.0,0.3329
642.0,0.3323
643.0,0.3369
644.0,0.3367
645.0,0.3368
646.0,0.3265
647.0,0.317
648.0,0.3178
649.0,0.3107
650.0,0.3195
651.0,0.3345
652.0,0.3137
653.0,0.3306
654.0,0.3274
655.0,0.3117
656.0,0.2788
657.0,0.2867
658.0,0.3237
659.0,0.3269
660.0,0.3288
661.0,0.3315
662.0,0.3309
663.0,0.3249
664.0,0.3307
665.0,0.3325
666.0,0.3334
667.0,0.3338
668.0,0.3348
669.0,0.3405
670.0,0.3394
671.0,0.3398
672.0,0.3372
673.0,0.3426
674.0,0.3417
675.0,0.3389
676.0,0.3416
677.0,0.3385
678.0,0.3398
679.0,0.3345
680.0,0.3374
681.0,0.3353
682.0,0.3349
683.0,0.3344
684.0,0.3327
685.0,0.3359
686.0,0.3335
687.0,0.143
688.0,0.1994
689.0,0.2013
690.0,0.2235
691.0,0.2502
692.0,0.2721
693.0,0.2693
694.0,0.2695
695.0,0.2911
696.0,0.2922
697.0,0.3219
698.0,0.3167
699.0,0.3008
700.0,0.2968
701.0,0.2903
702.0,0.2956
703.0,0.2972
704.0,0.3117
705.0,0.312
706.0,0.3136
707.0,0.3147
708.0,0.3151
709.0,0.319
710.0,0.3171
711.0,0.318
712.0,0.3187
713.0,0.3139
714.0,0.3156
715.0,0.3021
716.0,0.3015
717.0,0.2321
718.0,0.2112
719.0,0.1912
720.0,0.1971
721.0,0.2338
722.0,0.2854
723.0,0.257
724.0,0.2206
725.0,0.2138
726.0,0.2245
727.0,0.2351
728.0,0.212
729.0,0.2299
730.0,0.2405
731.0,0.2286
732.0,0.2553
733.0,0.2799
734.0,0.2899
735.0,0.2821
736.0,0.2811
737.0,0.2824
738.0,0.295
739.0,0.2894
740.0,0.2994
741.0,0.2978
742.0,0.2997
743.0,0.3078
744.0,0.3079
745.0,0.3088
746.0,0.3102
747.0,0.3111
748.0,0.3105
749.0,0.3071
750.0,0.307
751.0,0.3039
752.0,0.3053
753.0,0.307
754.0,0.3077
755.0,0.3059
756.0,0.3059
757.0,0.3063
758.0,0.3023
759.0,0.2907
760.0,0.008364
761.0,0.002821
762.0,0.07414
763.0,0.01835
764.0,0.04099
765.0,0.07391
766.0,0.1178
767.0,0.1844
768.0,0.2478
769.0,0.2618
770.0,0.2809
771.0,0.2878
772.0,0.2899
773.0,0.2923
774.0,0.2912
775.0,0.2892
776.0,0.2929
777.0,0.2891
778.0,0.2873
779.0,0.2875
780.0,0.286
781.0,0.2864
782.0,0.2883
783.0,0.2834
784.0,0.2849
785.0,0.2824
786.0,0.2852
787.0,0.2761
788.0,0.2708
789.0,0.2706
790.0,0.2581
791.0,0.2657
792.0,0.2646
793.0,0.2598
794.0,0.2696
795.0,0.2727
796.0,0.2567
797.0,0.2563
798.0,0.2714
799.0,0.2683
800.0,0.2619
801.0,0.2592
802.0,0.2583
803.0,0.2553
804.0,0.2566
805.0,0.258
806.0,0.2692
807.0,0.2652
808.0,0.2656
809.0,0.2576
810.0,0.2538
811.0,0.2507
812.0,0.2377
813.0,0.231
814.0,0.19
815.0,0.19
816.0,0.1749
817.0,0.1787
818.0,0.169
819.0,0.2001
820.0,0.1847
821.0,0.2332
822.0,0.2237
823.0,0.127
824.0,0.2104
825.0,0.2294
826.0,0.2148
827.0,0.2326
828.0,0.1805
829.0,0.2147
830.0,0.2108
831.0,0.2114
832.0,0.2019
833.0,0.2223
834.0,0.2096
835.0,0.2428
836.0,0.2235
837.0,0.2435
838.0,0.2314
839.0,0.2402
840.0,0.2466
841.0,0.2412
842.0,0.2446
843.0,0.2477
844.0,0.2426
845.0,0.2529
846.0,0.2524
847.0,0.2486
848.0,0.2457
849.0,0.2387
850.0,0.2288
851.0,0.2408
852.0,0.2399
853.0,0.232
854.0,0.1993
855.0,0.2204
856.0,0.2403
857.0,0.2466
858.0,0.2443
859.0,0.2452
860.0,0.246
861.0,0.2445
862.0,0.2486
863.0,0.2545
864.0,0.2419
865.0,0.2399
866.0,0.2157
867.0,0.2251
868.0,0.245
869.0,0.24
870.0,0.2469
871.0,0.2435
872.0,0.2427
873.0,0.2423
874.0,0.2394
875.0,0.2345
876.0,0.2369
877.0,0.2394
878.0,0.2417
879.0,0.2381
880.0,0.233
881.0,0.2288
882.0,0.2334
883.0,0.2349
884.0,0.2336
885.0,0.2353
886.0,0.2218
887.0,0.2261
888.0,0.2284
889.0,0.233
890.0,0.2285
891.0,0.2294
892.0,0.2194
893.0,0.2096
894.0,0.1952
895.0,0.1761
896.0,0.1639
897.0,0.1318
898.0,0.1479
899.0,0.1027
900.0,0.1574
901.0,0.1076
902.0,0.139
903.0,0.1356
904.0,0.1934
905.0,0.184
906.0,0.1696
907.0,0.1225
908.0,0.1283
909.0,0.1443
910.0,0.117
911.0,0.1334
912.0,0.1394
913.0,0.1182
914.0,0.1195
915.0,0.1282
916.0,0.1074
917.0,0.1465
918.0,0.1091
919.0,0.1531
920.0,0.1636
921.0,0.1691
922.0,0.1433
923.0,0.1644
924.0,0.1442
925.0,0.1417
926.0,0.1416
927.0,0.1662
928.0,0.09966
929.0,0.08542
930.0,0.0583
931.0,0.05493
932.0,0.0317
933.0,0.02279
934.0,0.007238
935.0,0.02552
936.0,0.01214
937.0,0.01225
938.0,0.0163
939.0,0.05298
940.0,0.07013
941.0,0.0452
942.0,0.05595
943.0,0.03124
944.0,0.03867
945.0,0.04834
946.0,0.01752
947.0,0.04655
948.0,0.03358
949.0,0.07006
950.0,0.01043
951.0,0.06958
952.0,0.0286
953.0,0.0427
954.0,0.05917
955.0,0.04399
956.0,0.05096
957.0,0.02833
958.0,0.0792
959.0,0.05357
960.0,0.06015
961.0,0.07499
962.0,0.07075
963.0,0.08836
964.0,0.07909
965.0,0.08744
966.0,0.08707
967.0,0.08551
968.0,0.1434
969.0,0.1448
970.0,0.1308
971.0,0.1626
972.0,0.1525
973.0,0.1199
974.0,0.1131
975.0,0.1211
976.0,0.1077
977.0,0.1383
978.0,0.1248
979.0,0.1341
980.0,0.1245
981.0,0.162
982.0,0.1501
983.0,0.1416
984.0,0.1732
985.0,0.1491
986.0,0.1803
987.0,0.1727
988.0,0.1727
989.0,0.1825
990.0,0.1715
991.0,0.1825
992.0,0.1841
993.0,0.1757
994.0,0.1845
995.0,0.185
996.0,0.1835
997.0,0.1841
998.0,0.1829
999.0,0.1825
1000.0,0.1801
1001.0,0.1836
1002.0,0.1738
1003.0,0.1801
1004.0,0.1744
1005.0,0.1697
1006.0,0.1755
1007.0,0.1797
1008.0,0.1779
1009.0,0.176
1010.0,0.1748
1011.0,0.1789
1012.0,0.1765
1013.0,0.1787
1014.0,0.1775
1015.0,0.1762
1016.0,0.1753
1017.0,0.1755
1018.0,0.1754
1019.0,0.1699
1020.0,0.1742
1021.0,0.1743
1022.0,0.1723
1023.0,0.174
1024.0,0.1699
1025.0,0.1745
1026.0,0.1733
1027.0,0.173
1028.0,0.1725
1029.0,0.1702
1030.0,0.1721
1031.0,0.1711
1032.0,0.1708
1033.0,0.1682
1034.0,0.1683
1035.0,0.1688
1036.0,0.1695
1037.0,0.1668
1038.0,0.1675
1039.0,0.1673
1040.0,0.1665
1041.0,0.167
1042.0,0.1658
1043.0,0.1652
1044.0,0.1657
1045.0,0.1633
1046.0,0.1614
1047.0,0.1627
1048.0,0.1635
1049.0,0.1627
1050.0,0.1618
1051.0,0.1614
1052.0,0.1606
1053.0,0.1591
1054.0,0.1591
1055.0,0.159
1056.0,0.1581
1057.0,0.1573
1058.0,0.1532
1059.0,0.1531
1060.0,0.1527
1061.0,0.1523
1062.0,0.1528
1063.0,0.1511
1064.0,0.153
1065.0,0.1512
1066.0,0.1487
1067.0,0.1505
1068.0,0.1467
1069.0,0.1426
1070.0,0.147
1071.0,0.1508
1072.0,0.1479
1073.0,0.146
1074.0,0.1516
1075.0,0.1397
1076.0,0.1512
1077.0,0.1462
1078.0,0.1421
1079.0,0.1497
1080.0,0.1439
1081.0,0.137
1082.0,0.143
1083.0,0.1446
1084.0,0.1359
1085.0,0.1446
1086.0,0.1263
1087.0,0.134
1088.0,0.1437
1089.0,0.1348
1090.0,0.13
1091.0,0.1421
1092.0,0.1425
1093.0,0.11
1094.0,0.129
1095.0,0.1148
1096.0,0.1071
1097.0,0.1392
1098.0,0.1036
1099.0,0.1096
1100.0,0.09806
1101.0,0.1008
1102.0,0.09332
1103.0,0.09035
1104.0,0.09082
1105.0,0.1062
1106.0,0.06544
1107.0,0.098
1108.0,0.07368
1109.0,0.07509
1110.0,0.09477
1111.0,0.05183
1112.0,0.07506
1113.0,0.03652
1114.0,0.04107
1115.0,0.03302
1116.0,0.02115
1117.0,0.004059
1118.0,0.02399
1119.0,0.008154
1120.0,0.009663
1121.0,0.01451
1122.0,0.003619
1123.0,0.008854
1124.0,0.007421
1125.0,0.0106
1126.0,0.001554
1127.0,0.01218
1128.0,0.004605
1129.0,0.005081
1130.0,0.003066
1131.0,0.03211
1132.0,0.02324
1133.0,0.01014
1134.0,0.001165
1135.0,0.000527
1136.0,0.007094
1137.0,0.02968
1138.0,0.01985
1139.0,0.04154
1140.0,0.03001
1141.0,0.01904
1142.0,0.02386
1143.0,0.03942
1144.0,0.008992
1145.0,0.009696
1146.0,0.01042
1147.0,0.001694
1148.0,0.0331
1149.0,0.02327
1150.0,0.01083
1151.0,0.01974
1152.0,0.02806
1153.0,0.03054
1154.0,0.009946
1155.0,0.04323
1156.0,0.03634
1157.0,0.04673
1158.0,0.04599
1159.0,0.05204
1160.0,0.04285
1161.0,0.06025
1162.0,0.05964
1163.0,0.09542
1164.0,0.07663
1165.0,0.06707
1166.0,0.07113
1167.0,0.07993
1168.0,0.07978
1169.0,0.08291
1170.0,0.09486
1171.0,0.09246
1172.0,0.09749
1173.0,0.09477
1174.0,0.0576
1175.0,0.09574
1176.0,0.112
1177.0,0.1028
1178.0,0.06933
1179.0,0.1128
1180.0,0.09349
1181.0,0.09667
1182.0,0.05754
1183.0,0.09661
1184.0,0.08734
1185.0,0.08135
1186.0,0.1063
1187.0,0.09803
1188.0,0.05666
1189.0,0.09091
1190.0,0.1048
1191.0,0.09282
1192.0,0.1069
1193.0,0.1002
1194.0,0.1048
1195.0,0.09455
1196.0,0.0887
1197.0,0.1065
1198.0,0.0957
1199.0,0.0724
1200.0,0.0989
1201.0,0.09193
1202.0,0.09454
1203.0,0.09163
1204.0,0.07665
1205.0,0.09909
1206.0,0.1138
1207.0,0.09283
1208.0,0.09415
1209.0,0.09643
1210.0,0.1026
1211.0,0.09464
1212.0,0.08809
1213.0,0.1074
1214.0,0.09209
1215.0,0.08995
1216.0,0.1078
1217.0,0.1032
1218.0,0.1067
1219.0,0.1042
1220.0,0.107
1221.0,0.1093
1222.0,0.1057
1223.0,0.1039
1224.0,0.1012
1225.0,0.1081
1226.0,0.1104
1227.0,0.09684
1228.0,0.112
1229.0,0.1104
1230.0,0.1076
1231.0,0.1139
1232.0,0.1131
1233.0,0.1049
1234.0,0.1148
1235.0,0.1134
1236.0,0.1147
1237.0,0.1115
1238.0,0.1144
1239.0,0.1129
1240.0,0.1135
1241.0,0.1118
1242.0,0.1126
1243.0,0.1118
1244.0,0.1122
1245.0,0.1129
1246.0,0.1123
1247.0,0.1115
1248.0,0.1108
1249.0,0.1117
1250.0,0.1107
1251.0,0.1085
1252.0,0.1095
1253.0,0.1069
1254.0,0.1046
1255.0,0.1089
1256.0,0.1028
1257.0,0.1016
1258.0,0.106
1259.0,0.09746
1260.0,0.09854
1261.0,0.08743
1262.0,0.08199
1263.0,0.082
1264.0,0.06958
1265.0,0.08158
1266.0,0.07481
1267.0,0.07868
1268.0,0.07061
1269.0,0.02453
1270.0,0.07739
1271.0,0.08789
1272.0,0.08872
1273.0,0.08715
1274.0,0.0883
1275.0,0.09057
1276.0,0.09257
1277.0,0.09469
1278.0,0.09869
1279.0,0.09773
1280.0,0.09661
1281.0,0.09325
1282.0,0.09162
1283.0,0.09831
1284.0,0.1003
1285.0,0.1013
1286.0,0.1036
1287.0,0.1003
1288.0,0.1008
1289.0,0.09409
1290.0,0.1001
1291.0,0.1022
1292.0,0.08973
1293.0,0.09875
1294.0,0.09781
1295.0,0.09509
1296.0,0.08715
1297.0,0.07995
1298.0,0.09171
1299.0,0.0994
1300.0,0.07503
1301.0,0.07876
1302.0,0.09165
1303.0,0.07483
1304.0,0.056
1305.0,0.08935
1306.0,0.08827
1307.0,0.06006
1308.0,0.07634
1309.0,0.08602
1310.0,0.05807
1311.0,0.07127
1312.0,0.06844
1313.0,0.06486
1314.0,0.05511
1315.0,0.0528
1316.0,0.06859
1317.0,0.0637
1318.0,0.07275
1319.0,0.04759
1320.0,0.04771
1321.0,0.059
1322.0,0.05776
1323.0,0.03627
1324.0,0.04711
1325.0,0.06633
1326.0,0.05246
1327.0,0.04866
1328.0,0.03932
1329.0,0.02364
1330.0,0.03406
1331.0,0.01488
1332.0,0.01675
1333.0,0.02436
1334.0,0.02475
1335.0,0.0353
1336.0,0.02441
1337.0,0.02101
1338.0,0.02225
1339.0,0.02281
1340.0,0.02392
1341.0,0.0192
1342.0,0.02079
1343.0,0.008749
1344.0,0.005745
1345.0,0.007703
1346.0,0.001845
1347.0,0.001595
1348.0,2.7e-05
1349.0,0.0001253
1350.0,0.0001544
1351.0,1.201e-05
1352.0,1.232e-06
1353.0,5.303e-08
1354.0,2.134e-07
1355.0,1.373e-09
1356.0,2.574e-08
1357.0,3.897e-08
1358.0,1.614e-09
1359.0,2.018e-10
1360.0,7.309e-10
1361.0,8.154e-13
1362.0,2.23e-15
1363.0,9.805e-10
1364.0,4.05e-10
1365.0,7.787e-16
1366.0,4.251e-09
1367.0,1.74e-09
1368.0,6.013e-18
1369.0,1.492e-10
1370.0,7.344e-11
1371.0,4.162e-12
1372.0,9.445e-10
1373.0,1.94e-08
1374.0,9.562e-08
1375.0,1.67e-07
1376.0,1.872e-07
1377.0,8.23e-08
1378.0,7.93e-07
1379.0,3.544e-08
1380.0,4.309e-08
1381.0,1.103e-09
1382.0,8.265e-10
1383.0,1.234e-11
1384.0,1.616e-10
1385.0,7.858e-10
1386.0,7.272e-10
1387.0,8.98e-08
1388.0,1.868e-09
1389.0,3.404e-07
1390.0,2.829e-07
1391.0,1.895e-07
1392.0,1.253e-08
1393.0,7.204e-08
1394.0,3.046e-08
1395.0,2.215e-10
1396.0,1.061e-12
1397.0,2.642e-08
1398.0,8.082e-07
1399.0,5.265e-07
1400.0,4.538e-13
1401.0,1.883e-12
1402.0,4.145e-06
1403.0,3.692e-06
1404.0,9.38e-07
1405.0,1.043e-10
1406.0,1.705e-06
1407.0,2.911e-07
1408.0,1.483e-06
1409.0,3.718e-07
1410.0,4.254e-07
1411.0,3.473e-06
1412.0,6.933e-06
1413.0,0.0001811
1414.0,3.671e-07
1415.0,1.468e-07
1416.0,0.0008381
1417.0,0.0001337
1418.0,8.775e-05
1419.0,1.182e-05
1420.0,5.258e-05
1421.0,8.992e-05
1422.0,0.001084
