interpolation:linear
wavelength,value
280.0,2.889e-22
280.5,9.499e-21
281.0,5.0910000000000004e-20
281.5,4.058e-19
282.0,6.673e-19
282.5,1.656e-18
283.0,5.237e-18
283.5,8.526e-18
284.0,1.404e-16
284.5,4.095e-16
285.0,6.755e-16
285.5,3.373e-15
286.0,1.361e-14
286.5,6.128e-14
287.0,1.759e-13
287.5,6.781e-13
288.0,2.344e-12
288.5,7.061e-12
289.0,1.876e-11
289.5,5.653e-11
290.0,1.568e-10
290.5,3.195e-10
291.0,6.856e-10
291.5,1.968e-09
292.0,3.975e-09
292.5,5.588e-09
293.0,1.202e-08
293.5,2.934e-08
294.0,4.597e-08
294.5,6.3e-08
295.0,1.069e-07
295.5,1.802e-07
296.0,3.512e-07
296.5,4.966e-07
297.0,6.787e-07
297.5,1.853e-06
298.0,2.972e-06
298.5,3.034e-06
299.0,6.799e-06
299.5,1.167e-05
300.0,1.309e-05
300.5,1.939e-05
301.0,3.652e-05
301.5,6.051e-05
302.0,5.283e-05
302.5,0.0001066
303.0,0.0002007
303.5,0.0002623
304.0,0.0002554
304.5,0.0004194
305.0,0.0007298
305.5,0.0009138
306.0,0.0009159
306.5,0.00121
307.0,0.002047
307.5,0.003098
308.0,0.003343
308.5,0.004214
309.0,0.004288
309.5,0.005417
310.0,0.005695
310.5,0.009432
311.0,0.01228
311.5,0.01205
312.0,0.01304
312.5,0.01671
313.0,0.01862
313.5,0.01764
314.0,0.02347
314.5,0.02258
315.0,0.03011
315.5,0.02422
316.0,0.0226
316.5,0.03434
317.0,0.0426
317.5,0.04362
318.0,0.03538
318.5,0.04729
319.0,0.05824
319.5,0.04473
320.0,0.05357
320.5,0.07227
321.0,0.06883
321.5,0.06645
322.0,0.06591
322.5,0.05756
323.0,0.06009
323.5,0.07716
324.0,0.09076
324.5,0.09042
325.0,0.07627
325.5,0.1019
326.0,0.126
326.5,0.1293
327.0,0.1278
327.5,0.122
328.0,0.1052
328.5,0.1151
329.0,0.1422
329.5,0.163
330.0,0.1632
330.5,0.1275
331.0,0.1289
331.5,0.1335
332.0,0.148
332.5,0.1482
333.0,0.1468
333.5,0.1304
334.0,0.1332
334.5,0.1572
335.0,0.1496
335.5,0.1753
336.0,0.1214
336.5,0.1409
337.0,0.1146
337.5,0.1421
338.0,0.1413
338.5,0.164
339.0,0.1625
339.5,0.1563
340.0,0.183
340.5,0.1653
341.0,0.1618
341.5,0.1489
342.0,0.1781
342.5,0.1669
343.0,0.1834
343.5,0.1726
344.0,0.1272
344.5,0.1288
345.0,0.1709
345.5,0.1748
346.0,0.1488
346.5,0.1686
347.0,0.1809
347.5,0.1463
348.0,0.1671
348.5,0.1672
349.0,0.1553
349.5,0.1539
350.0,0.1905
350.5,0.201
351.0,0.1795
351.5,0.1743
352.0,0.1875
352.5,0.1466
353.0,0.1848
353.5,0.1978
354.0,0.2055
354.5,0.2085
355.0,0.2079
355.5,0.188
356.0,0.1968
356.5,0.1682
357.0,0.139
357.5,0.1702
358.0,0.135
358.5,0.1154
359.0,0.1615
359.5,0.2058
360.0,0.2183
360.5,0.1746
361.0,0.1593
361.5,0.1837
362.0,0.159
362.5,0.2203
363.0,0.1981
363.5,0.1827
364.0,0.2236
364.5,0.1912
365.0,0.1949
365.5,0.2448
366.0,0.2596
366.5,0.2441
367.0,0.2379
367.5,0.247
368.0,0.2163
368.5,0.2184
369.0,0.2361
369.5,0.2518
370.0,0.2686
370.5,0.2087
371.0,0.2231
371.5,0.2793
372.0,0.1855
372.5,0.2226
373.0,0.2266
373.5,0.1476
374.0,0.2145
374.5,0.1778
375.0,0.173
375.5,0.2584
376.0,0.2143
376.5,0.2222
377.0,0.2354
377.5,0.2756
378.0,0.2989
378.5,0.2827
379.0,0.2334
379.5,0.2132
380.0,0.2218
380.5,0.2689
381.0,0.2697
381.5,0.214
382.0,0.1903
382.5,0.1624
383.0,0.1505
383.5,0.145
384.0,0.1601
384.5,0.2357
385.0,0.2339
385.5,0.218
386.0,0.1868
386.5,0.2457
387.0,0.2042
387.5,0.2295
388.0,0.2121
388.5,0.2098
389.0,0.2266
389.5,0.2747
390.0,0.2759
390.5,0.2541
391.0,0.2993
391.5,0.3054
392.0,0.2574
392.5,0.2306
393.0,0.1284
393.5,0.09344
394.0,0.1903
394.5,0.2421
395.0,0.2956
395.5,0.3004
396.0,0.2606
396.5,0.1525
397.0,0.1145
397.5,0.2331
398.0,0.3265
398.5,0.3377
399.0,0.3661
399.5,0.3651
400.0,0.3792
401.0,0.3825
402.0,0.4042
403.0,0.3846
404.0,0.3791
405.0,0.3795
406.0,0.3739
407.0,0.3684
408.0,0.3831
409.0,0.4104
410.0,0.3591
411.0,0.3895
412.0,0.4191
413.0,0.409
414.0,0.4145
415.0,0.4162
416.0,0.4241
417.0,0.4141
418.0,0.4068
419.0,0.4127
420.0,0.4112
421.0,0.4307
422.0,0.4098
423.0,0.4007
424.0,0.424
425.0,0.4238
426.0,0.4135
427.0,0.4062
428.0,0.3959
429.0,0.3757
430.0,0.3292
431.0,0.3263
432.0,0.4219
433.0,0.4247
434.0,0.3945
435.0,0.4122
436.0,0.4652
437.0,0.4597
438.0,0.419
439.0,0.433
440.0,0.4473
441.0,0.4641
442.0,0.498
443.0,0.485
444.0,0.4961
445.0,0.4855
446.0,0.4642
447.0,0.5026
448.0,0.5102
449.0,0.5132
450.0,0.5281
451.0,0.548
452.0,0.5284
453.0,0.4974
454.0,0.52
455.0,0.5233
456.0,0.5361
457.0,0.5452
458.0,0.5263
459.0,0.5238
460.0,0.5251
461.0,0.5374
462.0,0.5422
463.0,0.5385
464.0,0.5306
465.0,0.5247
466.0,0.5305
467.0,0.5206
468.0,0.5269
469.0,0.5297
470.0,0.5128
471.0,0.5124
472.0,0.5399
473.0,0.533
474.0,0.5333
475.0,0.5373
476.0,0.5204
477.0,0.5214
478.0,0.5361
479.0,0.5333
480.0,0.5348
481.0,0.5455
482.0,0.5492
483.0,0.5434
484.0,0.5328
485.0,0.5082
486.0,0.4449
487.0,0.4668
488.0,0.5121
489.0,0.5135
490.0,0.5406
491.0,0.5317
492.0,0.5022
493.0,0.5188
494.0,0.5241
495.0,0.5287
496.0,0.532
497.0,0.5402
498.0,0.5149
499.0,0.5211
500.0,0.5055
501.0,0.4957
502.0,0.4878
503.0,0.5066
504.0,0.4908
505.0,0.5108
506.0,0.5272
507.0,0.5018
508.0,0.4871
509.0,0.5015
510.0,0.4995
511.0,0.5136
512.0,0.5195
513.0,0.4918
514.0,0.4887
515.0,0.4838
516.0,0.4826
517.0,0.429
518.0,0.4509
519.0,0.4729
520.0,0.49
521.0,0.4945
522.0,0.4947
523.0,0.4856
524.0,0.5025
525.0,0.5076
526.0,0.4846
527.0,0.456
528.0,0.4818
529.0,0.5074
530.0,0.4999
531.0,0.507
532.0,0.4894
533.0,0.4751
534.0,0.4894
535.0,0.5005
536.0,0.5054
537.0,0.4858
538.0,0.4946
539.0,0.4904
540.0,0.47
541.0,0.4722
542.0,0.4865
543.0,0.4821
544.0,0.4897
545.0,0.4884
546.0,0.4898
547.0,0.4902
548.0,0.4847
549.0,0.4864
550.0,0.4922
551.0,0.4864
552.0,0.4898
553.0,0.4809
554.0,0.4923
555.0,0.4931
556.0,0.4865
557.0,0.4711
558.0,0.4671
559.0,0.4579
560.0,0.4633
561.0,0.4688
562.0,0.4649
563.0,0.4769
564.0,0.4634
565.0,0.4589
566.0,0.4518
567.0,0.4597
568.0,0.454
569.0,0.4403
570.0,0.4405
571.0,0.4386
572.0,0.4471
573.0,0.4516
574.0,0.4497
575.0,0.4406
576.0,0.4366
577.0,0.4417
578.0,0.4359
579.0,0.439
580.0,0.4496
581.0,0.4536
582.0,0.4637
583.0,0.466
584.0,0.4709
585.0,0.4599
586.0,0.4505
587.0,0.4594
588.0,0.4445
589.0,0.3866
590.0,0.4048
591.0,0.4328
592.0,0.4248
593.0,0.4344
594.0,0.43
595.0,0.4166
596.0,0.439
597.0,0.4327
598.0,0.4334
599.0,0.4346
600.0,0.4368
601.0,0.4343
602.0,0.4316
603.0,0.4393
604.0,0.4469
605.0,0.4449
606.0,0.4438
607.0,0.4489
608.0,0.4446
609.0,0.4459
610.0,0.4434
611.0,0.4461
612.0,0.4452
613.0,0.44
614.0,0.4345
615.0,0.4446
616.0,0.4304
617.0,0.4298
618.0,0.4467
619.0,0.4424
620.0,0.4452
621.0,0.4451
622.0,0.4395
623.0,0.4324
624.0,0.4254
625.0,0.4244
626.0,0.4306
627.0,0.434
628.0,0.3885
629.0,0.4178
630.0,0.4076
631.0,0.4226
632.0,0.4186
633.0,0.4337
634.0,0.4314
635.0,0.4391
636.0,0.4344
637.0,0.4423
638.0,0.4479
639.0,0.4436
640.0,0.4401
641.0,0.4404
642.0,0.4391
643.0,0.4451
644.0,0.4444
645.0,0.4447
646.0,0.4323
647.0,0.4225
648.0,0.423
649.0,0.4142
650.0,0.4223
651.0,0.4417
652.0,0.4172
653.0,0.4362
654.0,0.4318
655.0,0.4127
656.0,0.3679
657.0,0.3782
658.0,0.4257
659.0,0.4296
660.0,0.4318
661.0,0.435
662.0,0.4348
663.0,0.4266
664.0,0.4334
665.0,0.435
666.0,0.4359
667.0,0.4362
668.0,0.4371
669.0,0.4443
670.0,0.4427
671.0,0.4429
672.0,0.4394
673.0,0.4463
674.0,0.4449
675.0,0.4412
676.0,0.4444
677.0,0.4403
678.0,0.4418
679.0,0.4348
680.0,0.4385
681.0,0.4357
682.0,0.4352
683.0,0.4344
684.0,0.4322
685.0,0.4362
686.0,0.4333
687.0,0.2185
688.0,0.2859
689.0,0.288
690.0,0.3131
691.0,0.3425
692.0,0.3658
693.0,0.3621
694.0,0.3605
695.0,0.3844
696.0,0.3854
697.0,0.4193
698.0,0.4126
699.0,0.3956
700.0,0.3905
701.0,0.3838
702.0,0.3893
703.0,0.3906
704.0,0.4074
705.0,0.4079
706.0,0.4092
707.0,0.4102
708.0,0.4109
709.0,0.4143
710.0,0.4128
711.0,0.4133
712.0,0.4134
713.0,0.4079
714.0,0.4099
715.0,0.394
716.0,0.3935
717.0,0.3158
718.0,0.2878
719.0,0.2616
720.0,0.2715
721.0,0.3142
722.0,0.3752
723.0,0.3415
724.0,0.2981
725.0,0.2902
726.0,0.3046
727.0,0.3154
728.0,0.2883
729.0,0.308
730.0,0.324
731.0,0.3083
732.0,0.3392
733.0,0.3676
734.0,0.3792
735.0,0.3698
736.0,0.369
737.0,0.3705
738.0,0.3831
739.0,0.3756
740.0,0.3875
741.0,0.3848
742.0,0.3865
743.0,0.3967
744.0,0.3964
745.0,0.3971
746.0,0.3989
747.0,0.4
748.0,0.3992
749.0,0.3947
750.0,0.3945
751.0,0.3906
752.0,0.3924
753.0,0.3944
754.0,0.3953
755.0,0.3931
756.0,0.393
757.0,0.3935
758.0,0.3885
759.0,0.3762
760.0,0.01944
761.0,0.006973
762.0,0.1241
763.0,0.0388
764.0,0.07637
765.0,0.1239
766.0,0.1796
767.0,0.2596
768.0,0.3296
769.0,0.3437
770.0,0.3636
771.0,0.3703
772.0,0.3723
773.0,0.3752
774.0,0.3736
775.0,0.371
776.0,0.3756
777.0,0.3707
778.0,0.3684
779.0,0.3687
780.0,0.3667
781.0,0.3671
782.0,0.3695
783.0,0.3632
784.0,0.3651
785.0,0.3621
786.0,0.3658
787.0,0.356
788.0,0.3501
789.0,0.3498
790.0,0.336
791.0,0.3434
792.0,0.3415
793.0,0.3356
794.0,0.3459
795.0,0.3505
796.0,0.3334
797.0,0.3333
798.0,0.3493
799.0,0.3459
800.0,0.3384
801.0,0.3358
802.0,0.3348
803.0,0.3314
804.0,0.3326
805.0,0.3335
806.0,0.346
807.0,0.3411
808.0,0.3417
809.0,0.3329
810.0,0.3286
811.0,0.3258
812.0,0.3121
813.0,0.3038
814.0,0.2554
815.0,0.2546
816.0,0.2355
817.0,0.2406
818.0,0.2289
819.0,0.266
820.0,0.2469
821.0,0.3037
822.0,0.2926
823.0,0.1765
824.0,0.2783
825.0,0.2985
826.0,0.2822
827.0,0.3028
828.0,0.2424
829.0,0.2815
830.0,0.2767
831.0,0.2777
832.0,0.2666
833.0,0.2903
834.0,0.2755
835.0,0.3133
836.0,0.2927
837.0,0.3143
838.0,0.3009
839.0,0.3102
840.0,0.3179
841.0,0.3119
842.0,0.3149
843.0,0.3173
844.0,0.3115
845.0,0.3239
846.0,0.3229
847.0,0.3176
848.0,0.3145
849.0,0.3056
850.0,0.2929
851.0,0.3089
852.0,0.3073
853.0,0.2967
854.0,0.2554
855.0,0.2817
856.0,0.3074
857.0,0.315
858.0,0.3124
859.0,0.3132
860.0,0.3141
861.0,0.3122
862.0,0.3173
863.0,0.3248
864.0,0.3087
865.0,0.3061
866.0,0.2752
867.0,0.2872
868.0,0.3126
869.0,0.3062
870.0,0.3149
871.0,0.3106
872.0,0.3096
873.0,0.309
874.0,0.3053
875.0,0.2991
876.0,0.3021
877.0,0.3053
878.0,0.3084
879.0,0.3037
880.0,0.2972
881.0,0.2922
882.0,0.2983
883.0,0.2998
884.0,0.2982
885.0,0.3004
886.0,0.2843
887.0,0.2889
888.0,0.2923
889.0,0.2973
890.0,0.2927
891.0,0.2933
892.0,0.282
893.0,0.2705
894.0,0.2551
895.0,0.2338
896.0,0.2183
897.0,0.1793
898.0,0.1997
899.0,0.1427
900.0,0.2098
901.0,0.1495
902.0,0.1877
903.0,0.1852
904.0,0.253
905.0,0.2418
906.0,0.2239
907.0,0.1685
908.0,0.1745
909.0,0.1942
910.0,0.1617
911.0,0.1799
912.0,0.1887
913.0,0.1635
914.0,0.1643
915.0,0.1772
916.0,0.1486
917.0,0.1985
918.0,0.1516
919.0,0.2056
920.0,0.2152
921.0,0.2234
922.0,0.1923
923.0,0.2166
924.0,0.195
925.0,0.1913
926.0,0.1922
927.0,0.2224
928.0,0.1422
929.0,0.1244
930.0,0.0893
931.0,0.0848
932.0,0.05287
933.0,0.03956
934.0,0.01514
935.0,0.04314
936.0,0.02245
937.0,0.02257
938.0,0.02931
939.0,0.08194
940.0,0.1049
941.0,0.07128
942.0,0.08657
943.0,0.05108
944.0,0.05974
945.0,0.07522
946.0,0.03066
947.0,0.07345
948.0,0.05322
949.0,0.1061
950.0,0.01933
951.0,0.1055
952.0,0.04714
953.0,0.06719
954.0,0.08968
955.0,0.06874
956.0,0.0741
957.0,0.04668
958.0,0.1132
959.0,0.08065
960.0,0.09042
961.0,0.1089
962.0,0.1026
963.0,0.1249
964.0,0.1125
965.0,0.1243
966.0,0.1234
967.0,0.1219
968.0,0.1897
969.0,0.1942
970.0,0.176
971.0,0.2131
972.0,0.2013
973.0,0.1635
974.0,0.1543
975.0,0.164
976.0,0.1491
977.0,0.1834
978.0,0.1685
979.0,0.1797
980.0,0.1673
981.0,0.2122
982.0,0.1985
983.0,0.1883
984.0,0.2241
985.0,0.1975
986.0,0.2315
987.0,0.223
988.0,0.2229
989.0,0.233
990.0,0.2214
991.0,0.2333
992.0,0.235
993.0,0.2259
994.0,0.2354
995.0,0.2357
996.0,0.234
997.0,0.2347
998.0,0.2333
999.0,0.2327
1000.0,0.2301
1001.0,0.234
1002.0,0.2237
1003.0,0.2296
1004.0,0.223
1005.0,0.2162
1006.0,0.224
1007.0,0.2291
1008.0,0.2272
1009.0,0.2252
1010.0,0.2238
1011.0,0.228
1012.0,0.2253
1013.0,0.2277
1014.0,0.2261
1015.0,0.2245
1016.0,0.2234
1017.0,0.2238
1018.0,0.2234
1019.0,0.2172
1020.0,0.222
1021.0,0.222
1022.0,0.2197
1023.0,0.222
1024.0,0.2176
1025.0,0.2223
1026.0,0.221
1027.0,0.2206
1028.0,0.22
1029.0,0.2172
1030.0,0.2192
1031.0,0.2182
1032.0,0.2177
1033.0,0.2144
1034.0,0.2144
1035.0,0.2151
1036.0,0.216
1037.0,0.2126
1038.0,0.2135
1039.0,0.2133
1040.0,0.2124
1041.0,0.2131
1042.0,0.2116
1043.0,0.2108
1044.0,0.2115
1045.0,0.2085
1046.0,0.2061
1047.0,0.2079
1048.0,0.2089
1049.0,0.208
1050.0,0.2069
1051.0,0.2065
1052.0,0.2055
1053.0,0.2037
1054.0,0.2039
1055.0,0.2038
1056.0,0.2028
1057.0,0.202
1058.0,0.1968
1059.0,0.1968
1060.0,0.1963
1061.0,0.196
1062.0,0.1967
1063.0,0.1946
1064.0,0.197
1065.0,0.195
1066.0,0.1916
1067.0,0.1939
1068.0,0.1893
1069.0,0.1838
1070.0,0.1896
1071.0,0.1939
1072.0,0.1907
1073.0,0.1881
1074.0,0.1945
1075.0,0.1809
1076.0,0.1941
1077.0,0.1885
1078.0,0.1839
1079.0,0.1917
1080.0,0.1857
1081.0,0.1777
1082.0,0.1839
1083.0,0.1854
1084.0,0.1766
1085.0,0.1864
1086.0,0.165
1087.0,0.1737
1088.0,0.1845
1089.0,0.1751
1090.0,0.1694
1091.0,0.183
1092.0,0.1832
1093.0,0.1456
1094.0,0.1664
1095.0,0.1522
1096.0,0.1431
1097.0,0.179
1098.0,0.1394
1099.0,0.1469
1100.0,0.1329
1101.0,0.1359
1102.0,0.1271
1103.0,0.124
1104.0,0.1244
1105.0,0.1427
1106.0,0.09421
1107.0,0.1327
1108.0,0.1037
1109.0,0.1053
1110.0,0.1297
1111.0,0.0763
1112.0,0.1051
1113.0,0.05584
1114.0,0.06289
1115.0,0.0513
1116.0,0.03532
1117.0,0.008317
1118.0,0.03975
1119.0,0.01534
1120.0,0.01867
1121.0,0.027
1122.0,0.008105
1123.0,0.01705
1124.0,0.01433
1125.0,0.01979
1126.0,0.003945
1127.0,0.02262
1128.0,0.01002
1129.0,0.01096
1130.0,0.006587
1131.0,0.05317
1132.0,0.03962
1133.0,0.01968
1134.0,0.002963
1135.0,0.001248
1136.0,0.01467
1137.0,0.05005
1138.0,0.03423
1139.0,0.06369
1140.0,0.04831
1141.0,0.03269
1142.0,0.03983
1143.0,0.06218
1144.0,0.01638
1145.0,0.01895
1146.0,0.02038
1147.0,0.004338
1148.0,0.05304
1149.0,0.03888
1150.0,0.01874
1151.0,0.03397
1152.0,0.04597
1153.0,0.04819
1154.0,0.01869
1155.0,0.06627
1156.0,0.05703
1157.0,0.06948
1158.0,0.06851
1159.0,0.07669
1160.0,0.06326
1161.0,0.08533
1162.0,0.08497
1163.0,0.1286
1164.0,0.1054
1165.0,0.09447
1166.0,0.09794
1167.0,0.109
1168.0,0.1091
1169.0,0.113
1170.0,0.1272
1171.0,0.1239
1172.0,0.129
1173.0,0.127
1174.0,0.08107
1175.0,0.1267
1176.0,0.1452
1177.0,0.1353
1178.0,0.09424
1179.0,0.1464
1180.0,0.1243
1181.0,0.1285
1182.0,0.08032
1183.0,0.1278
1184.0,0.1169
1185.0,0.1102
1186.0,0.1395
1187.0,0.13
1188.0,0.08014
1189.0,0.1207
1190.0,0.1369
1191.0,0.1243
1192.0,0.1394
1193.0,0.1317
1194.0,0.137
1195.0,0.1257
1196.0,0.1189
1197.0,0.1386
1198.0,0.1251
1199.0,0.09853
1200.0,0.1299
1201.0,0.1224
1202.0,0.1241
1203.0,0.1216
1204.0,0.1031
1205.0,0.1292
1206.0,0.1466
1207.0,0.1226
1208.0,0.1231
1209.0,0.1261
1210.0,0.1331
1211.0,0.124
1212.0,0.1181
1213.0,0.1396
1214.0,0.1226
1215.0,0.1198
1216.0,0.1396
1217.0,0.1344
1218.0,0.1383
1219.0,0.1357
1220.0,0.1386
1221.0,0.1409
1222.0,0.1367
1223.0,0.1347
1224.0,0.1322
1225.0,0.1398
1226.0,0.1419
1227.0,0.1268
1228.0,0.1436
1229.0,0.1419
1230.0,0.1388
1231.0,0.1454
1232.0,0.1445
1233.0,0.1359
1234.0,0.1461
1235.0,0.1446
1236.0,0.1461
1237.0,0.1426
1238.0,0.1456
1239.0,0.1437
1240.0,0.1445
1241.0,0.1429
1242.0,0.1434
1243.0,0.1423
1244.0,0.143
1245.0,0.1438
1246.0,0.143
1247.0,0.1421
1248.0,0.1416
1249.0,0.1424
1250.0,0.1413
1251.0,0.1389
1252.0,0.1397
1253.0,0.1372
1254.0,0.1348
1255.0,0.1392
1256.0,0.1328
1257.0,0.1316
1258.0,0.136
1259.0,0.1273
1260.0,0.1285
1261.0,0.1167
1262.0,0.1108
1263.0,0.1109
1264.0,0.09717
1265.0,0.1103
1266.0,0.103
1267.0,0.107
1268.0,0.09805
1269.0,0.04238
1270.0,0.1057
1271.0,0.1169
1272.0,0.1177
1273.0,0.116
1274.0,0.117
1275.0,0.1196
1276.0,0.1216
1277.0,0.1236
1278.0,0.1278
1279.0,0.1265
1280.0,0.1251
1281.0,0.1202
1282.0,0.1173
1283.0,0.126
1284.0,0.1287
1285.0,0.1298
1286.0,0.1324
1287.0,0.1289
1288.0,0.1293
1289.0,0.1223
1290.0,0.1283
1291.0,0.1306
1292.0,0.1175
1293.0,0.1269
1294.0,0.1258
1295.0,0.1234
1296.0,0.1147
1297.0,0.1063
1298.0,0.1193
1299.0,0.1275
1300.0,0.09999
1301.0,0.1044
1302.0,0.1191
1303.0,0.09946
1304.0,0.07777
1305.0,0.1163
1306.0,0.1155
1307.0,0.08207
1308.0,0.1009
1309.0,0.1134
1310.0,0.07985
1311.0,0.09502
1312.0,0.09147
1313.0,0.08798
1314.0,0.07619
1315.0,0.07364
1316.0,0.09214
1317.0,0.08627
1318.0,0.09683
1319.0,0.06729
1320.0,0.06683
1321.0,0.08083
1322.0,0.08004
1323.0,0.05358
1324.0,0.06635
1325.0,0.08991
1326.0,0.073
1327.0,0.06842
1328.0,0.05667
1329.0,0.03693
1330.0,0.05106
1331.0,0.02502
1332.0,0.02746
1333.0,0.0393
1334.0,0.03718
1335.0,0.0528
1336.0,0.03833
1337.0,0.03301
1338.0,0.03532
1339.0,0.03595
1340.0,0.03671
1341.0,0.0317
1342.0,0.03385
1343.0,0.01675
1344.0,0.01063
1345.0,0.01489
1346.0,0.004601
1347.0,0.004237
1348.0,0.0001044
1349.0,0.0004677
1350.0,0.0005664
1351.0,5.635e-05
1352.0,4.89e-06
1353.0,1.284e-07
1354.0,7.632e-07
1355.0,1.826e-09
1356.0,6.195e-08
1357.0,9.341e-08
1358.0,2.205e-09
1359.0,2.134e-10
1360.0,8.693e-10
1361.0,8.239e-13
1362.0,2.247e-15
1363.0,1.053e-09
1364.0,4.44e-10
1365.0,7.839e-16
1366.0,4.752e-09
1367.0,2.146e-09
1368.0,6.052e-18
1369.0,1.639e-10
1370.0,7.681e-11
1371.0,4.264e-12
1372.0,1.188e-09
1373.0,3.416e-08
1374.0,2.506e-07
1375.0,3.838e-07
1376.0,7.127e-07
1377.0,2.932e-07
1378.0,3.078e-06
1379.0,1.282e-07
1380.0,1.149e-07
1381.0,2.567e-09
1382.0,9.975e-10
1383.0,1.412e-11
1384.0,1.731e-10
1385.0,1.231e-09
1386.0,8.091e-10
1387.0,1.65e-07
1388.0,4.412e-09
1389.0,1.103e-06
1390.0,8.648e-07
1391.0,5.642e-07
1392.0,3.642e-08
1393.0,2.541e-07
1394.0,5.023e-08
1395.0,3.039e-10
1396.0,1.076e-12
1397.0,8.049e-08
1398.0,3.019e-06
1399.0,2.047e-06
1400.0,4.579e-13
1401.0,1.917e-12
1402.0,1.968e-05
1403.0,1.871e-05
1404.0,4.912e-06
1405.0,1.246e-10
1406.0,8.177e-06
1407.0,1.344e-06
1408.0,7.341e-06
1409.0,1.352e-06
1410.0,1.98e-06
1411.0,1.749e-05
1412.0,3.274e-05
1413.0,0.000721
1414.0,1.74e-06
1415.0,6.473e-07
1416.0,0.0023
1417.0,0.0004281
1418.0,0.0003634
1419.0,5.045e-05
1420.0,0.0002184
1421.0,0.0002949
1422.0,0.003002
1423.0,0.0005325
1424.0,0.001138
1425.0,0.001403
1426.0,0.002118
1427.0,0.004909
1428.0,8.675e-05
1429.0,0.002997
