interpolation:linear
wavelength,value
280.0,4.544e-22
280.5,1.484e-20
281.0,7.935000000000001e-20
281.5,4.591e-19
282.0,7.594e-19
282.5,1.881e-18
283.0,5.935e-18
283.5,9.651e-18
284.0,1.579e-16
284.5,4.593e-16
285.0,7.904e-16
285.5,3.912e-15
286.0,1.574e-14
286.5,7.054e-14
287.0,2.018e-13
287.5,7.751e-13
288.0,2.592e-12
288.5,7.895e-12
289.0,2.11e-11
289.5,6.386e-11
290.0,1.775e-10
290.5,3.62e-10
291.0,7.772e-10
291.5,2.231e-09
292.0,4.717e-09
292.5,6.623e-09
293.0,1.422e-08
293.5,3.465e-08
294.0,5.421e-08
294.5,7.348e-08
295.0,1.245e-07
295.5,2.217e-07
296.0,4.349e-07
296.5,6.199e-07
297.0,8.535e-07
297.5,2.363e-06
298.0,3.844e-06
298.5,3.976e-06
299.0,9.037e-06
299.5,1.597e-05
300.0,1.828e-05
300.5,2.769e-05
301.0,5.432e-05
301.5,9.405e-05
302.0,8.426e-05
302.5,0.0001702
303.0,0.0003208
303.5,0.0004187
304.0,0.0004062
304.5,0.0006595
305.0,0.001127
305.5,0.001395
306.0,0.001391
306.5,0.001822
307.0,0.003023
307.5,0.004482
308.0,0.00482
308.5,0.006012
309.0,0.006164
309.5,0.007602
310.0,0.007905
310.5,0.01302
311.0,0.01681
311.5,0.01643
312.0,0.01745
312.5,0.02209
313.0,0.02446
313.5,0.02331
314.0,0.03055
314.5,0.02883
315.0,0.03832
315.5,0.03111
316.0,0.02858
316.5,0.04285
317.0,0.05316
317.5,0.05466
318.0,0.04392
318.5,0.05768
319.0,0.0704
319.5,0.05487
320.0,0.06586
320.5,0.08725
321.0,0.08175
321.5,0.0788
322.0,0.07956
322.5,0.06942
323.0,0.07164
323.5,0.09092
324.0,0.1067
324.5,0.1069
325.0,0.09078
325.5,0.1202
326.0,0.148
326.5,0.151
327.0,0.1495
327.5,0.1432
328.0,0.1245
328.5,0.1348
329.0,0.1652
329.5,0.189
330.0,0.1896
330.5,0.1491
331.0,0.151
331.5,0.1556
332.0,0.1715
332.5,0.1712
333.0,0.1699
333.5,0.1516
334.0,0.155
334.5,0.1819
335.0,0.1726
335.5,0.202
336.0,0.1398
336.5,0.1628
337.0,0.1327
337.5,0.1647
338.0,0.163
338.5,0.1888
339.0,0.1871
339.5,0.18
340.0,0.2111
340.5,0.1906
341.0,0.1863
341.5,0.1713
342.0,0.2049
342.5,0.1919
343.0,0.211
343.5,0.1986
344.0,0.1466
344.5,0.1483
345.0,0.1966
345.5,0.201
346.0,0.171
346.5,0.1938
347.0,0.208
347.5,0.1683
348.0,0.1921
348.5,0.1922
349.0,0.1785
349.5,0.1768
350.0,0.2189
350.5,0.231
351.0,0.2063
351.5,0.2004
352.0,0.2155
352.5,0.1684
353.0,0.2123
353.5,0.2272
354.0,0.236
354.5,0.2395
355.0,0.2387
355.5,0.2159
356.0,0.226
356.5,0.1931
357.0,0.1596
357.5,0.1954
358.0,0.155
358.5,0.1325
359.0,0.1854
359.5,0.2362
360.0,0.2506
360.5,0.2004
361.0,0.1828
361.5,0.2108
362.0,0.1825
362.5,0.2528
363.0,0.2272
363.5,0.2095
364.0,0.2564
364.5,0.2193
365.0,0.2235
365.5,0.2806
366.0,0.2976
366.5,0.2799
367.0,0.2727
367.5,0.2831
368.0,0.2479
368.5,0.2503
369.0,0.2705
369.5,0.2886
370.0,0.3078
370.5,0.2391
371.0,0.2556
371.5,0.32
372.0,0.2125
372.5,0.2549
373.0,0.2595
373.5,0.169
374.0,0.2457
374.5,0.2036
375.0,0.198
375.5,0.2958
376.0,0.2453
376.5,0.2543
377.0,0.2695
377.5,0.3155
378.0,0.3421
378.5,0.3235
379.0,0.267
379.5,0.244
380.0,0.2538
380.5,0.3076
381.0,0.3086
381.5,0.2448
382.0,0.2176
382.5,0.1857
383.0,0.172
383.5,0.1658
384.0,0.183
384.5,0.2694
385.0,0.2673
385.5,0.2491
386.0,0.2135
386.5,0.2807
387.0,0.2333
387.5,0.2622
388.0,0.2423
388.5,0.2396
389.0,0.2588
389.5,0.3137
390.0,0.315
390.5,0.2901
391.0,0.3417
391.5,0.3487
392.0,0.2938
392.5,0.2632
393.0,0.1466
393.5,0.1066
394.0,0.2171
394.5,0.2762
395.0,0.3372
395.5,0.3427
396.0,0.2973
396.5,0.1739
397.0,0.1306
397.5,0.2658
398.0,0.3723
398.5,0.385
399.0,0.4173
399.5,0.4162
400.0,0.4322
401.0,0.4366
402.0,0.4612
403.0,0.4387
404.0,0.4324
405.0,0.4327
406.0,0.4263
407.0,0.42
408.0,0.4366
409.0,0.4677
410.0,0.4092
411.0,0.4437
412.0,0.4772
413.0,0.4657
414.0,0.4719
415.0,0.4737
416.0,0.4826
417.0,0.4711
418.0,0.4628
419.0,0.4694
420.0,0.4677
421.0,0.4897
422.0,0.4658
423.0,0.4554
424.0,0.4819
425.0,0.4815
426.0,0.4697
427.0,0.4613
428.0,0.4496
429.0,0.4265
430.0,0.3736
431.0,0.3704
432.0,0.4788
433.0,0.4818
434.0,0.4476
435.0,0.4676
436.0,0.5276
437.0,0.5212
438.0,0.475
439.0,0.4909
440.0,0.507
441.0,0.5259
442.0,0.5644
443.0,0.5496
444.0,0.5621
445.0,0.55
446.0,0.5257
447.0,0.5691
448.0,0.5777
449.0,0.5809
450.0,0.5976
451.0,0.6201
452.0,0.5979
453.0,0.5627
454.0,0.588
455.0,0.5918
456.0,0.6062
457.0,0.6164
458.0,0.5951
459.0,0.5923
460.0,0.5938
461.0,0.6077
462.0,0.613
463.0,0.6088
464.0,0.5996
465.0,0.5928
466.0,0.5991
467.0,0.588
468.0,0.5951
469.0,0.5983
470.0,0.5792
471.0,0.5786
472.0,0.6097
473.0,0.6019
474.0,0.6023
475.0,0.607
476.0,0.5882
477.0,0.5893
478.0,0.6059
479.0,0.6027
480.0,0.6043
481.0,0.6162
482.0,0.6201
483.0,0.6135
484.0,0.6014
485.0,0.5734
486.0,0.5018
487.0,0.5264
488.0,0.5775
489.0,0.5791
490.0,0.6096
491.0,0.5994
492.0,0.5661
493.0,0.5848
494.0,0.5908
495.0,0.5959
496.0,0.5996
497.0,0.6089
498.0,0.5804
499.0,0.5875
500.0,0.57
501.0,0.5591
502.0,0.5504
503.0,0.5719
504.0,0.5548
505.0,0.5768
506.0,0.5954
507.0,0.5667
508.0,0.5499
509.0,0.5659
510.0,0.5635
511.0,0.5792
512.0,0.5858
513.0,0.5545
514.0,0.551
515.0,0.5455
516.0,0.5441
517.0,0.4836
518.0,0.5084
519.0,0.5332
520.0,0.5525
521.0,0.5576
522.0,0.5579
523.0,0.5477
524.0,0.5668
525.0,0.5728
526.0,0.547
527.0,0.5149
528.0,0.5441
529.0,0.5731
530.0,0.5647
531.0,0.5728
532.0,0.553
533.0,0.5368
534.0,0.5529
535.0,0.5653
536.0,0.5708
537.0,0.5486
538.0,0.5584
539.0,0.5537
540.0,0.5307
541.0,0.5334
542.0,0.5498
543.0,0.5446
544.0,0.5534
545.0,0.5518
546.0,0.5536
547.0,0.5539
548.0,0.5476
549.0,0.5495
550.0,0.556
551.0,0.5494
552.0,0.5532
553.0,0.5432
554.0,0.5561
555.0,0.5571
556.0,0.5497
557.0,0.5324
558.0,0.5279
559.0,0.5176
560.0,0.5238
561.0,0.5302
562.0,0.5259
563.0,0.5397
564.0,0.5245
565.0,0.5196
566.0,0.5116
567.0,0.5207
568.0,0.5147
569.0,0.4998
570.0,0.5
571.0,0.4977
572.0,0.5078
573.0,0.5129
574.0,0.5109
575.0,0.5007
576.0,0.4962
577.0,0.5019
578.0,0.4951
579.0,0.4984
580.0,0.5098
581.0,0.5139
582.0,0.5249
583.0,0.5273
584.0,0.5326
585.0,0.52
586.0,0.5094
587.0,0.5197
588.0,0.5037
589.0,0.4398
590.0,0.4605
591.0,0.4912
592.0,0.4827
593.0,0.4928
594.0,0.4881
595.0,0.4737
596.0,0.4977
597.0,0.4909
598.0,0.4913
599.0,0.4924
600.0,0.4945
601.0,0.4915
602.0,0.4883
603.0,0.4969
604.0,0.5054
605.0,0.5031
606.0,0.5016
607.0,0.5072
608.0,0.5022
609.0,0.5036
610.0,0.5006
611.0,0.5035
612.0,0.5024
613.0,0.4964
614.0,0.4901
615.0,0.5013
616.0,0.4852
617.0,0.4845
618.0,0.5034
619.0,0.4985
620.0,0.5017
621.0,0.5017
622.0,0.4954
623.0,0.4875
624.0,0.4795
625.0,0.4785
626.0,0.4854
627.0,0.4896
628.0,0.4424
629.0,0.4728
630.0,0.4614
631.0,0.4769
632.0,0.4722
633.0,0.4886
634.0,0.4855
635.0,0.494
636.0,0.4884
637.0,0.4971
638.0,0.5031
639.0,0.498
640.0,0.4939
641.0,0.4941
642.0,0.4925
643.0,0.4992
644.0,0.4982
645.0,0.4987
646.0,0.4853
647.0,0.4754
648.0,0.4759
649.0,0.4662
650.0,0.4737
651.0,0.4952
652.0,0.4692
653.0,0.4889
654.0,0.484
655.0,0.4632
656.0,0.4125
657.0,0.4239
658.0,0.4767
659.0,0.4808
660.0,0.4832
661.0,0.4867
662.0,0.4867
663.0,0.4775
664.0,0.4847
665.0,0.4862
666.0,0.4871
667.0,0.4872
668.0,0.4881
669.0,0.496
670.0,0.4941
671.0,0.4943
672.0,0.4903
673.0,0.4979
674.0,0.4963
675.0,0.492
676.0,0.4956
677.0,0.4909
678.0,0.4925
679.0,0.4848
680.0,0.4888
681.0,0.4856
682.0,0.4851
683.0,0.4842
684.0,0.4817
685.0,0.4861
686.0,0.483
687.0,0.2587
688.0,0.3305
689.0,0.3327
690.0,0.3588
691.0,0.3892
692.0,0.4129
693.0,0.4088
694.0,0.4065
695.0,0.4312
696.0,0.4322
697.0,0.4678
698.0,0.4604
699.0,0.4431
700.0,0.4374
701.0,0.4306
702.0,0.4361
703.0,0.4374
704.0,0.4552
705.0,0.4558
706.0,0.4568
707.0,0.4578
708.0,0.4586
709.0,0.4618
710.0,0.4604
711.0,0.4607
712.0,0.4605
713.0,0.4548
714.0,0.4568
715.0,0.4398
716.0,0.4395
717.0,0.3584
718.0,0.327
719.0,0.2977
720.0,0.3096
721.0,0.3548
722.0,0.4201
723.0,0.384
724.0,0.3374
725.0,0.3291
726.0,0.3454
727.0,0.356
728.0,0.3273
729.0,0.3475
730.0,0.3662
731.0,0.3487
732.0,0.3814
733.0,0.4115
734.0,0.4238
735.0,0.4137
736.0,0.4129
737.0,0.4146
738.0,0.4269
739.0,0.4186
740.0,0.4313
741.0,0.4281
742.0,0.4296
743.0,0.4409
744.0,0.4403
745.0,0.441
746.0,0.443
747.0,0.4441
748.0,0.4432
749.0,0.4382
750.0,0.438
751.0,0.4336
752.0,0.4356
753.0,0.4379
754.0,0.4388
755.0,0.4363
756.0,0.4362
757.0,0.4368
758.0,0.4313
759.0,0.4187
760.0,0.02765
761.0,0.01059
762.0,0.1521
763.0,0.05241
764.0,0.09762
765.0,0.1519
766.0,0.2124
767.0,0.298
768.0,0.3704
769.0,0.3845
770.0,0.4048
771.0,0.4113
772.0,0.4132
773.0,0.4163
774.0,0.4145
775.0,0.4115
776.0,0.4166
777.0,0.4112
778.0,0.4086
779.0,0.409
780.0,0.4068
781.0,0.4072
782.0,0.4098
783.0,0.4028
784.0,0.4049
785.0,0.4016
786.0,0.4058
787.0,0.3958
788.0,0.3895
789.0,0.3892
790.0,0.3749
791.0,0.3821
792.0,0.3798
793.0,0.3733
794.0,0.3837
795.0,0.3891
796.0,0.3716
797.0,0.3717
798.0,0.388
799.0,0.3845
800.0,0.3765
801.0,0.374
802.0,0.3729
803.0,0.3694
804.0,0.3705
805.0,0.371
806.0,0.3842
807.0,0.3789
808.0,0.3795
809.0,0.3703
810.0,0.3659
811.0,0.3634
812.0,0.3493
813.0,0.3403
814.0,0.2886
815.0,0.2875
816.0,0.2663
817.0,0.272
818.0,0.2593
819.0,0.2991
820.0,0.2784
821.0,0.3389
822.0,0.3271
823.0,0.202
824.0,0.3124
825.0,0.333
826.0,0.316
827.0,0.3379
828.0,0.2737
829.0,0.315
830.0,0.3097
831.0,0.311
832.0,0.2991
833.0,0.3242
834.0,0.3087
835.0,0.3485
836.0,0.3273
837.0,0.3497
838.0,0.3356
839.0,0.345
840.0,0.3534
841.0,0.347
842.0,0.3499
843.0,0.3519
844.0,0.3458
845.0,0.3591
846.0,0.3579
847.0,0.3519
848.0,0.3487
849.0,0.3388
850.0,0.3247
851.0,0.3427
852.0,0.3408
853.0,0.3289
854.0,0.2833
855.0,0.3122
856.0,0.3408
857.0,0.349
858.0,0.3461
859.0,0.3469
860.0,0.3478
861.0,0.3458
862.0,0.3514
863.0,0.3597
864.0,0.3418
865.0,0.3389
866.0,0.3047
867.0,0.318
868.0,0.3461
869.0,0.339
870.0,0.3487
871.0,0.3439
872.0,0.3427
873.0,0.3421
874.0,0.338
875.0,0.3311
876.0,0.3345
877.0,0.338
878.0,0.3415
879.0,0.3363
880.0,0.3291
881.0,0.3236
882.0,0.3304
883.0,0.332
884.0,0.3303
885.0,0.3327
886.0,0.3153
887.0,0.3201
888.0,0.324
889.0,0.3292
890.0,0.3246
891.0,0.325
892.0,0.3131
893.0,0.3009
894.0,0.2851
895.0,0.2628
896.0,0.2458
897.0,0.2036
898.0,0.2259
899.0,0.1633
900.0,0.2363
901.0,0.1711
902.0,0.2123
903.0,0.2104
904.0,0.2828
905.0,0.2707
906.0,0.2513
907.0,0.1919
908.0,0.1981
909.0,0.2194
910.0,0.1847
911.0,0.2037
912.0,0.2138
913.0,0.187
914.0,0.1873
915.0,0.2024
916.0,0.1699
917.0,0.2249
918.0,0.1735
919.0,0.2321
920.0,0.2412
921.0,0.2506
922.0,0.2172
923.0,0.2428
924.0,0.2209
925.0,0.2165
926.0,0.2178
927.0,0.2507
928.0,0.1644
929.0,0.145
930.0,0.106
931.0,0.1008
932.0,0.06471
933.0,0.04918
934.0,0.02023
935.0,0.05303
936.0,0.02858
937.0,0.02873
938.0,0.03694
939.0,0.09748
940.0,0.1232
941.0,0.08546
942.0,0.103
943.0,0.06204
944.0,0.07102
945.0,0.08974
946.0,0.03823
947.0,0.0881
948.0,0.06396
949.0,0.1254
950.0,0.02472
951.0,0.1246
952.0,0.05755
953.0,0.08054
954.0,0.1059
955.0,0.08221
956.0,0.08644
957.0,0.05705
958.0,0.1308
959.0,0.0951
960.0,0.1066
961.0,0.1267
962.0,0.1194
963.0,0.1438
964.0,0.13
965.0,0.1433
966.0,0.1423
967.0,0.1409
968.0,0.2131
969.0,0.2191
970.0,0.1989
971.0,0.2384
972.0,0.2257
973.0,0.1858
974.0,0.1753
975.0,0.1857
976.0,0.1702
977.0,0.2062
978.0,0.1907
979.0,0.2028
980.0,0.189
981.0,0.2373
982.0,0.2229
983.0,0.2118
984.0,0.2494
985.0,0.2219
986.0,0.2569
987.0,0.2483
988.0,0.2481
989.0,0.2581
990.0,0.2464
991.0,0.2585
992.0,0.2603
993.0,0.251
994.0,0.2606
995.0,0.2608
996.0,0.2591
997.0,0.2598
998.0,0.2583
999.0,0.2576
1000.0,0.2549
1001.0,0.259
1002.0,0.2484
1003.0,0.2542
1004.0,0.2471
1005.0,0.2393
1006.0,0.248
1007.0,0.2536
1008.0,0.2516
1009.0,0.2496
1010.0,0.2482
1011.0,0.2524
1012.0,0.2496
1013.0,0.252
1014.0,0.2502
1015.0,0.2485
1016.0,0.2473
1017.0,0.2478
1018.0,0.2473
1019.0,0.2407
1020.0,0.2458
1021.0,0.2457
1022.0,0.2433
1023.0,0.2458
1024.0,0.2412
1025.0,0.246
1026.0,0.2446
1027.0,0.2442
1028.0,0.2435
1029.0,0.2405
1030.0,0.2426
1031.0,0.2415
1032.0,0.2409
1033.0,0.2373
1034.0,0.2373
1035.0,0.2381
1036.0,0.2392
1037.0,0.2353
1038.0,0.2363
1039.0,0.2361
1040.0,0.2351
1041.0,0.2359
1042.0,0.2343
1043.0,0.2335
1044.0,0.2342
1045.0,0.2309
1046.0,0.2283
1047.0,0.2303
1048.0,0.2314
1049.0,0.2305
1050.0,0.2293
1051.0,0.2288
1052.0,0.2278
1053.0,0.2258
1054.0,0.2261
1055.0,0.226
1056.0,0.225
1057.0,0.2241
1058.0,0.2184
1059.0,0.2185
1060.0,0.218
1061.0,0.2176
1062.0,0.2186
1063.0,0.2162
1064.0,0.2189
1065.0,0.2168
1066.0,0.2129
1067.0,0.2155
1068.0,0.2104
1069.0,0.2042
1070.0,0.2108
1071.0,0.2153
1072.0,0.2119
1073.0,0.209
1074.0,0.2158
1075.0,0.2015
1076.0,0.2154
1077.0,0.2096
1078.0,0.2047
1079.0,0.2126
1080.0,0.2065
1081.0,0.1981
1082.0,0.2042
1083.0,0.2056
1084.0,0.1969
1085.0,0.2072
1086.0,0.1844
1087.0,0.1935
1088.0,0.2049
1089.0,0.1952
1090.0,0.1892
1091.0,0.2033
1092.0,0.2034
1093.0,0.1636
1094.0,0.185
1095.0,0.171
1096.0,0.1613
1097.0,0.1988
1098.0,0.1575
1099.0,0.1656
1100.0,0.1506
1101.0,0.1536
1102.0,0.1443
1103.0,0.1412
1104.0,0.1416
1105.0,0.1611
1106.0,0.1093
1107.0,0.1504
1108.0,0.1192
1109.0,0.1209
1110.0,0.1475
1111.0,0.08914
1112.0,0.1205
1113.0,0.06624
1114.0,0.07459
1115.0,0.06111
1116.0,0.04326
1117.0,0.01105
1118.0,0.04847
1119.0,0.01963
1120.0,0.02411
1121.0,0.03433
1122.0,0.01103
1123.0,0.02198
1124.0,0.01848
1125.0,0.02521
1126.0,0.005635
1127.0,0.02876
1128.0,0.01353
1129.0,0.01472
1130.0,0.008913
1131.0,0.06482
1132.0,0.0488
1133.0,0.02544
1134.0,0.004245
1135.0,0.001741
1136.0,0.01941
1137.0,0.06151
1138.0,0.04234
1139.0,0.07541
1140.0,0.05827
1141.0,0.04038
1142.0,0.04867
1143.0,0.07448
1144.0,0.0207
1145.0,0.02454
1146.0,0.0264
1147.0,0.006216
1148.0,0.06381
1149.0,0.04754
1150.0,0.0233
1151.0,0.042
1152.0,0.0558
1153.0,0.05767
1154.0,0.02395
1155.0,0.07849
1156.0,0.06815
1157.0,0.08149
1158.0,0.08042
1159.0,0.08953
1160.0,0.07409
1161.0,0.09832
1162.0,0.0981
1163.0,0.1454
1164.0,0.1201
1165.0,0.1087
1166.0,0.1117
1167.0,0.1238
1168.0,0.1241
1169.0,0.1284
1170.0,0.1435
1171.0,0.1398
1172.0,0.1449
1173.0,0.1433
1174.0,0.09331
1175.0,0.1423
1176.0,0.1618
1177.0,0.1516
1178.0,0.107
1179.0,0.1631
1180.0,0.1398
1181.0,0.1445
1182.0,0.09206
1183.0,0.1435
1184.0,0.1319
1185.0,0.1249
1186.0,0.1561
1187.0,0.1461
1188.0,0.09227
1189.0,0.1357
1190.0,0.153
1191.0,0.1402
1192.0,0.1556
1193.0,0.1475
1194.0,0.1531
1195.0,0.1414
1196.0,0.1342
1197.0,0.1547
1198.0,0.1398
1199.0,0.1118
1200.0,0.1455
1201.0,0.1377
1202.0,0.139
1203.0,0.1367
1204.0,0.1165
1205.0,0.1442
1206.0,0.1628
1207.0,0.1376
1208.0,0.1376
1209.0,0.1409
1210.0,0.1484
1211.0,0.1388
1212.0,0.1333
1213.0,0.1556
1214.0,0.1379
1215.0,0.1349
1216.0,0.1555
1217.0,0.1501
1218.0,0.1541
1219.0,0.1514
1220.0,0.1544
1221.0,0.1568
1222.0,0.1521
1223.0,0.1501
1224.0,0.1478
1225.0,0.1555
1226.0,0.1576
1227.0,0.1417
1228.0,0.1592
1229.0,0.1576
1230.0,0.1543
1231.0,0.1611
1232.0,0.1601
1233.0,0.1513
1234.0,0.1616
1235.0,0.1601
1236.0,0.1617
1237.0,0.1581
1238.0,0.1612
1239.0,0.1591
1240.0,0.1598
1241.0,0.1583
1242.0,0.1586
1243.0,0.1574
1244.0,0.1583
1245.0,0.1591
1246.0,0.1582
1247.0,0.1574
1248.0,0.1568
1249.0,0.1577
1250.0,0.1565
1251.0,0.154
1252.0,0.1546
1253.0,0.1523
1254.0,0.1499
1255.0,0.1542
1256.0,0.1477
1257.0,0.1465
1258.0,0.1509
1259.0,0.1422
1260.0,0.1433
1261.0,0.1313
1262.0,0.1253
1263.0,0.1254
1264.0,0.1111
1265.0,0.1247
1266.0,0.1172
1267.0,0.1212
1268.0,0.1119
1269.0,0.05235
1270.0,0.12
1271.0,0.1314
1272.0,0.1322
1273.0,0.1304
1274.0,0.1314
1275.0,0.134
1276.0,0.1361
1277.0,0.1381
1278.0,0.1423
1279.0,0.1409
1280.0,0.1392
1281.0,0.1336
1282.0,0.13
1283.0,0.1397
1284.0,0.1428
1285.0,0.144
1286.0,0.1466
1287.0,0.1431
1288.0,0.1434
1289.0,0.1364
1290.0,0.1423
1291.0,0.1448
1292.0,0.1315
1293.0,0.1409
1294.0,0.1397
1295.0,0.1375
1296.0,0.1285
1297.0,0.1196
1298.0,0.1331
1299.0,0.1415
1300.0,0.1126
1301.0,0.1174
1302.0,0.1328
1303.0,0.1119
1304.0,0.08899
1305.0,0.1297
1306.0,0.129
1307.0,0.0933
1308.0,0.1132
1309.0,0.127
1310.0,0.09098
1311.0,0.107
1312.0,0.1032
1313.0,0.0997
1314.0,0.08694
1315.0,0.08435
1316.0,0.1041
1317.0,0.0977
1318.0,0.1089
1319.0,0.07749
1320.0,0.07663
1321.0,0.09194
1322.0,0.09143
1323.0,0.06268
1324.0,0.07631
1325.0,0.1018
1326.0,0.08355
1327.0,0.07859
1328.0,0.06565
1329.0,0.04406
1330.0,0.0601
1331.0,0.03073
1332.0,0.03336
1333.0,0.04749
1334.0,0.0438
1335.0,0.06199
1336.0,0.04581
1337.0,0.03954
1338.0,0.04246
1339.0,0.04305
1340.0,0.04352
1341.0,0.0386
1342.0,0.04102
1343.0,0.02161
1344.0,0.01353
1345.0,0.01918
1346.0,0.006529
1347.0,0.006149
1348.0,0.0001803
1349.0,0.000784
1350.0,0.0009314
1351.0,0.0001085
1352.0,1.142e-05
1353.0,2.955e-07
1354.0,1.743e-06
1355.0,3.308e-09
1356.0,1.416e-07
1357.0,2.146e-07
1358.0,4.091e-09
1359.0,2.697e-10
1360.0,1.392e-09
1361.0,8.562e-13
1362.0,2.281e-15
1363.0,1.413e-09
1364.0,6.172e-10
1365.0,7.87e-16
1366.0,7.032e-09
1367.0,3.632e-09
1368.0,6.064e-18
1369.0,2.278e-10
1370.0,9.369e-11
1371.0,4.779e-12
1372.0,2.047e-09
1373.0,7.448e-08
1374.0,5.904e-07
1375.0,9.188e-07
1376.0,1.63e-06
1377.0,6.723e-07
1378.0,7.299e-06
1379.0,2.902e-07
1380.0,2.688e-07
1381.0,5.777e-09
1382.0,1.643e-09
1383.0,2.104e-11
1384.0,2.276e-10
1385.0,2.503e-09
1386.0,1.17e-09
1387.0,3.785e-07
1388.0,1.002e-08
1389.0,2.648e-06
1390.0,2.114e-06
1391.0,1.353e-06
1392.0,8.449e-08
1393.0,5.894e-07
1394.0,1.088e-07
1395.0,5.666e-10
1396.0,1.148e-12
1397.0,1.882e-07
1398.0,7.334e-06
1399.0,4.915e-06
1400.0,4.713e-13
1401.0,2.087e-12
1402.0,3.823e-05
1403.0,3.858e-05
1404.0,1.051e-05
1405.0,2.015e-10
1406.0,1.897e-05
1407.0,2.677e-06
1408.0,1.675e-05
1409.0,3.312e-06
1410.0,4.368e-06
1411.0,3.559e-05
1412.0,6.259e-05
1413.0,0.001221
1414.0,3.762e-06
1415.0,1.446e-06
1416.0,0.003378
1417.0,0.0006781
1418.0,0.0006273
1419.0,8.856e-05
1420.0,0.0003777
1421.0,0.0004735
1422.0,0.004423
1423.0,0.0007897
1424.0,0.001633
1425.0,0.002102
1426.0,0.002989
1427.0,0.006707
1428.0,0.0001543
1429.0,0.004261
1430.0,0.009357
1431.0,0.01081
