interpolation:linear
wavelength,value
280.0,3.769e-20
280.5,1.069e-18
281.0,5.458e-18
281.5,4.397e-19
282.0,1.885e-18
282.5,5.318e-18
283.0,1.77e-17
283.5,2.919e-17
284.0,4.609e-16
284.5,1.301e-15
285.0,2.34e-15
285.5,1.412e-14
286.0,5.988e-14
286.5,2.865e-13
287.0,8.471e-13
287.5,3.339e-12
288.0,9.982e-12
288.5,3.92e-11
289.0,1.311e-10
289.5,4.905e-10
290.0,1.599e-09
290.5,3.714e-09
291.0,9.234e-09
291.5,3.16e-08
292.0,8.662e-08
292.5,1.367e-07
293.0,3.407e-07
293.5,1.023e-06
294.0,1.876e-06
294.5,2.463e-06
295.0,4.841e-06
295.5,1.187e-05
296.0,2.271e-05
296.5,3.146e-05
297.0,4.224e-05
297.5,0.0001118
298.0,0.000174
298.5,0.0001734
299.0,0.0003785
299.5,0.0006165
300.0,0.0006713
300.5,0.0009619
301.0,0.001709
301.5,0.002681
302.0,0.002277
302.5,0.004308
303.0,0.007419
303.5,0.00909
304.0,0.008378
304.5,0.01188
305.0,0.01679
305.5,0.0184
306.0,0.01751
306.5,0.0212
307.0,0.02957
307.5,0.03708
308.0,0.0388
308.5,0.04453
309.0,0.043
309.5,0.04729
310.0,0.04663
310.5,0.07484
311.0,0.09249
311.5,0.08868
312.0,0.08573
312.5,0.102
313.0,0.1093
313.5,0.1073
314.0,0.1306
314.5,0.1117
315.0,0.1458
315.5,0.1241
316.0,0.1052
316.5,0.1473
317.0,0.183
317.5,0.1918
318.0,0.147
318.5,0.1765
319.0,0.206
319.5,0.1725
320.0,0.2092
320.5,0.2531
321.0,0.2185
321.5,0.2089
322.0,0.23
322.5,0.1998
323.0,0.1947
323.5,0.2344
324.0,0.2727
324.5,0.2792
325.0,0.244
325.5,0.3083
326.0,0.375
326.5,0.3712
327.0,0.3715
327.5,0.3607
328.0,0.3261
328.5,0.3364
329.0,0.3968
329.5,0.4484
330.0,0.4539
330.5,0.3674
331.0,0.3758
331.5,0.3786
332.0,0.4041
332.5,0.3974
333.0,0.3975
333.5,0.363
334.0,0.3724
334.5,0.4253
335.0,0.3973
335.5,0.464
336.0,0.321
336.5,0.377
337.0,0.3106
337.5,0.3868
338.0,0.3745
338.5,0.4321
339.0,0.4276
339.5,0.4113
340.0,0.4834
340.5,0.4354
341.0,0.4247
341.5,0.3898
342.0,0.4657
342.5,0.4356
343.0,0.4792
343.5,0.4513
344.0,0.3334
344.5,0.3368
345.0,0.4455
345.5,0.4547
346.0,0.3864
346.5,0.4374
347.0,0.4696
347.5,0.3797
348.0,0.4327
348.5,0.4325
349.0,0.4011
349.5,0.3971
350.0,0.4911
350.5,0.518
351.0,0.4628
351.5,0.4499
352.0,0.4831
352.5,0.3769
353.0,0.4746
353.5,0.5074
354.0,0.5267
354.5,0.5342
355.0,0.5324
355.5,0.4809
356.0,0.5031
356.5,0.4296
357.0,0.355
357.5,0.4346
358.0,0.3444
358.5,0.2943
359.0,0.4116
359.5,0.5246
360.0,0.5561
360.5,0.4445
361.0,0.4051
361.5,0.4664
362.0,0.4032
362.5,0.558
363.0,0.5011
363.5,0.4615
364.0,0.5644
364.5,0.4824
365.0,0.4913
365.5,0.6166
366.0,0.6532
366.5,0.6137
367.0,0.5977
367.5,0.6202
368.0,0.5427
368.5,0.5476
369.0,0.5914
369.5,0.6303
370.0,0.6719
370.5,0.5215
371.0,0.5572
371.5,0.6971
372.0,0.4627
372.5,0.5548
373.0,0.5643
373.5,0.3672
374.0,0.5335
374.5,0.4418
375.0,0.4295
375.5,0.6412
376.0,0.5315
376.5,0.5509
377.0,0.5832
377.5,0.6823
378.0,0.7396
378.5,0.6991
379.0,0.577
379.5,0.5271
380.0,0.548
380.5,0.6638
381.0,0.6651
381.5,0.5272
382.0,0.4682
382.5,0.3991
383.0,0.3695
383.5,0.3558
384.0,0.3925
384.5,0.5774
385.0,0.5726
385.5,0.5332
386.0,0.4567
386.5,0.5999
387.0,0.4985
387.5,0.5599
388.0,0.5169
388.5,0.511
389.0,0.5516
389.5,0.6681
390.0,0.6705
390.5,0.6171
391.0,0.7264
391.5,0.7409
392.0,0.624
392.5,0.5587
393.0,0.3109
393.5,0.226
394.0,0.4598
394.5,0.5846
395.0,0.7134
395.5,0.7247
396.0,0.6283
396.5,0.3673
397.0,0.2756
397.5,0.5606
398.0,0.7851
398.5,0.8115
399.0,0.8786
399.5,0.8757
400.0,0.9094
401.0,0.924
402.0,0.9747
403.0,0.9259
404.0,0.9116
405.0,0.9115
406.0,0.8966
407.0,0.882
408.0,0.9166
409.0,0.981
410.0,0.8571
411.0,0.9283
412.0,0.9969
413.0,0.9722
414.0,0.984
415.0,0.9865
416.0,1.004
417.0,0.979
418.0,0.9608
419.0,0.9734
420.0,0.9691
421.0,1.014
422.0,0.9635
423.0,0.9411
424.0,0.9954
425.0,0.9935
426.0,0.9675
427.0,0.9494
428.0,0.9248
429.0,0.8758
430.0,0.7664
431.0,0.7597
432.0,0.9807
433.0,0.986
434.0,0.9156
435.0,0.9562
436.0,1.077
437.0,1.062
438.0,0.9673
439.0,1.001
440.0,1.033
441.0,1.07
442.0,1.147
443.0,1.118
444.0,1.142
445.0,1.117
446.0,1.066
447.0,1.152
448.0,1.17
449.0,1.174
450.0,1.207
451.0,1.251
452.0,1.206
453.0,1.134
454.0,1.183
455.0,1.191
456.0,1.219
457.0,1.239
458.0,1.197
459.0,1.191
460.0,1.194
461.0,1.221
462.0,1.231
463.0,1.222
464.0,1.202
465.0,1.186
466.0,1.197
467.0,1.175
468.0,1.189
469.0,1.195
470.0,1.157
471.0,1.156
472.0,1.218
473.0,1.202
474.0,1.204
475.0,1.215
476.0,1.179
477.0,1.183
478.0,1.215
479.0,1.208
480.0,1.21
481.0,1.232
482.0,1.238
483.0,1.222
484.0,1.197
485.0,1.14
486.0,0.9965
487.0,1.044
488.0,1.145
489.0,1.149
490.0,1.209
491.0,1.188
492.0,1.122
493.0,1.158
494.0,1.17
495.0,1.18
496.0,1.187
497.0,1.205
498.0,1.149
499.0,1.164
500.0,1.13
501.0,1.11
502.0,1.095
503.0,1.14
504.0,1.113
505.0,1.151
506.0,1.188
507.0,1.131
508.0,1.095
509.0,1.125
510.0,1.119
511.0,1.148
512.0,1.161
513.0,1.099
514.0,1.091
515.0,1.08
516.0,1.077
517.0,0.9572
518.0,1.006
519.0,1.056
520.0,1.094
521.0,1.104
522.0,1.106
523.0,1.086
524.0,1.125
525.0,1.139
526.0,1.088
527.0,1.025
528.0,1.085
529.0,1.144
530.0,1.127
531.0,1.144
532.0,1.105
533.0,1.073
534.0,1.104
535.0,1.128
536.0,1.138
537.0,1.093
538.0,1.112
539.0,1.103
540.0,1.058
541.0,1.065
542.0,1.099
543.0,1.087
544.0,1.106
545.0,1.102
546.0,1.108
547.0,1.107
548.0,1.093
549.0,1.097
550.0,1.11
551.0,1.096
552.0,1.104
553.0,1.084
554.0,1.11
555.0,1.112
556.0,1.098
557.0,1.064
558.0,1.056
559.0,1.037
560.0,1.05
561.0,1.064
562.0,1.056
563.0,1.085
564.0,1.056
565.0,1.047
566.0,1.032
567.0,1.052
568.0,1.044
569.0,1.02
570.0,1.02
571.0,1.013
572.0,1.039
573.0,1.05
574.0,1.047
575.0,1.028
576.0,1.018
577.0,1.029
578.0,1.013
579.0,1.017
580.0,1.035
581.0,1.039
582.0,1.058
583.0,1.06
584.0,1.069
585.0,1.043
586.0,1.021
587.0,1.044
588.0,1.021
589.0,0.9082
590.0,0.9494
591.0,1.002
592.0,0.991
593.0,1.004
594.0,0.9977
595.0,0.9745
596.0,1.01
597.0,0.9995
598.0,0.996
599.0,0.9964
600.0,0.9971
601.0,0.9883
602.0,0.9815
603.0,0.9974
604.0,1.014
605.0,1.008
606.0,1.004
607.0,1.013
608.0,1.002
609.0,1.003
610.0,0.9959
611.0,1.001
612.0,0.9978
613.0,0.9851
614.0,0.9714
615.0,0.9922
616.0,0.9593
617.0,0.9572
618.0,0.9939
619.0,0.9838
620.0,0.99
621.0,0.9912
622.0,0.9799
623.0,0.9652
624.0,0.9484
625.0,0.9463
626.0,0.9604
627.0,0.9718
628.0,0.916
629.0,0.9517
630.0,0.9301
631.0,0.9482
632.0,0.9364
633.0,0.9636
634.0,0.9533
635.0,0.9678
636.0,0.9544
637.0,0.9697
638.0,0.9783
639.0,0.967
640.0,0.9573
641.0,0.9564
642.0,0.9517
643.0,0.9645
644.0,0.961
645.0,0.9628
646.0,0.9413
647.0,0.9324
648.0,0.9336
649.0,0.9156
650.0,0.9171
651.0,0.9563
652.0,0.9197
653.0,0.9435
654.0,0.9327
655.0,0.8996
656.0,0.7961
657.0,0.8174
658.0,0.9152
659.0,0.9213
660.0,0.925
661.0,0.9314
662.0,0.9339
663.0,0.9152
664.0,0.9252
665.0,0.9253
666.0,0.9258
667.0,0.9246
668.0,0.9247
669.0,0.9388
670.0,0.9346
671.0,0.9342
672.0,0.9261
673.0,0.9399
674.0,0.9363
675.0,0.9277
676.0,0.9339
677.0,0.9245
678.0,0.927
679.0,0.912
680.0,0.9192
681.0,0.9131
682.0,0.9119
683.0,0.9102
684.0,0.9056
685.0,0.9133
686.0,0.908
687.0,0.6395
688.0,0.7319
689.0,0.7339
690.0,0.7639
691.0,0.7974
692.0,0.8212
693.0,0.815
694.0,0.8083
695.0,0.8373
696.0,0.8384
697.0,0.8841
698.0,0.8705
699.0,0.8533
700.0,0.8431
701.0,0.8357
702.0,0.8401
703.0,0.8416
704.0,0.8664
705.0,0.8677
706.0,0.8661
707.0,0.8664
708.0,0.8683
709.0,0.8682
710.0,0.8688
711.0,0.8672
712.0,0.864
713.0,0.8559
714.0,0.859
715.0,0.8332
716.0,0.8341
717.0,0.7369
718.0,0.6791
719.0,0.6235
720.0,0.6541
721.0,0.7137
722.0,0.8074
723.0,0.7564
724.0,0.6868
725.0,0.6777
726.0,0.7084
727.0,0.7154
728.0,0.6766
729.0,0.6971
730.0,0.7376
731.0,0.7072
732.0,0.7513
733.0,0.7904
734.0,0.8079
735.0,0.7918
736.0,0.7907
737.0,0.794
738.0,0.803
739.0,0.7873
740.0,0.8068
741.0,0.7982
742.0,0.7983
743.0,0.8185
744.0,0.8158
745.0,0.8157
746.0,0.8194
747.0,0.8211
748.0,0.8194
749.0,0.81
750.0,0.8095
751.0,0.8013
752.0,0.8047
753.0,0.8087
754.0,0.8105
755.0,0.8059
756.0,0.8056
757.0,0.8067
758.0,0.7968
759.0,0.7825
760.0,0.1665
761.0,0.09525
762.0,0.4373
763.0,0.2403
764.0,0.3419
765.0,0.4374
766.0,0.5195
767.0,0.6383
768.0,0.723
769.0,0.7352
770.0,0.7568
771.0,0.7614
772.0,0.7625
773.0,0.7677
774.0,0.7639
775.0,0.758
776.0,0.7672
777.0,0.7571
778.0,0.7525
779.0,0.7531
780.0,0.7489
781.0,0.7496
782.0,0.7543
783.0,0.7411
784.0,0.7446
785.0,0.7392
786.0,0.7475
787.0,0.7358
788.0,0.7273
789.0,0.7272
790.0,0.71
791.0,0.7141
792.0,0.7086
793.0,0.6973
794.0,0.7071
795.0,0.7196
796.0,0.7003
797.0,0.7013
798.0,0.7191
799.0,0.715
800.0,0.7033
801.0,0.7017
802.0,0.6996
803.0,0.6946
804.0,0.6953
805.0,0.6923
806.0,0.7104
807.0,0.7021
808.0,0.7026
809.0,0.6905
810.0,0.6855
811.0,0.6878
812.0,0.67
813.0,0.6573
814.0,0.5848
815.0,0.581
816.0,0.5417
817.0,0.5508
818.0,0.5317
819.0,0.5887
820.0,0.5566
821.0,0.6428
822.0,0.6257
823.0,0.438
824.0,0.6102
825.0,0.632
826.0,0.6104
827.0,0.6416
828.0,0.551
829.0,0.6062
830.0,0.599
831.0,0.6009
832.0,0.5837
833.0,0.6174
834.0,0.5979
835.0,0.6518
836.0,0.627
837.0,0.6535
838.0,0.6345
839.0,0.6433
840.0,0.657
841.0,0.6483
842.0,0.6488
843.0,0.6475
844.0,0.639
845.0,0.6599
846.0,0.6568
847.0,0.6443
848.0,0.6407
849.0,0.6225
850.0,0.5964
851.0,0.6319
852.0,0.6272
853.0,0.6034
854.0,0.5213
855.0,0.5723
856.0,0.6256
857.0,0.6393
858.0,0.6347
859.0,0.6351
860.0,0.6361
861.0,0.6326
862.0,0.6425
863.0,0.6577
864.0,0.6248
865.0,0.6193
866.0,0.5568
867.0,0.5811
868.0,0.6323
869.0,0.6192
870.0,0.6368
871.0,0.6282
872.0,0.6259
873.0,0.6247
874.0,0.6172
875.0,0.6047
876.0,0.6111
877.0,0.6172
878.0,0.624
879.0,0.6144
880.0,0.6012
881.0,0.5924
882.0,0.6052
883.0,0.607
884.0,0.6042
885.0,0.6088
886.0,0.5809
887.0,0.5865
888.0,0.5955
889.0,0.6017
890.0,0.5973
891.0,0.596
892.0,0.5796
893.0,0.5626
894.0,0.5448
895.0,0.5174
896.0,0.4885
897.0,0.4232
898.0,0.4598
899.0,0.354
900.0,0.4686
901.0,0.3709
902.0,0.4296
903.0,0.4357
904.0,0.5407
905.0,0.5233
906.0,0.4906
907.0,0.4038
908.0,0.4111
909.0,0.4428
910.0,0.396
911.0,0.4194
912.0,0.4375
913.0,0.4021
914.0,0.3979
915.0,0.431
916.0,0.3661
917.0,0.4598
918.0,0.3755
919.0,0.467
920.0,0.4695
921.0,0.4878
922.0,0.4392
923.0,0.471
924.0,0.4504
925.0,0.4407
926.0,0.4455
927.0,0.4958
928.0,0.3721
929.0,0.342
930.0,0.2722
931.0,0.2573
932.0,0.1888
933.0,0.1553
934.0,0.08911
935.0,0.1574
936.0,0.1007
937.0,0.1024
938.0,0.125
939.0,0.2494
940.0,0.2976
941.0,0.2278
942.0,0.2618
943.0,0.1747
944.0,0.1817
945.0,0.2343
946.0,0.1226
947.0,0.2363
948.0,0.1741
949.0,0.3129
950.0,0.09214
951.0,0.3076
952.0,0.1696
953.0,0.2162
954.0,0.2619
955.0,0.2183
956.0,0.2103
957.0,0.1703
958.0,0.2935
959.0,0.2366
960.0,0.2651
961.0,0.2949
962.0,0.2794
963.0,0.3198
964.0,0.2937
965.0,0.3183
966.0,0.3189
967.0,0.3178
968.0,0.418
969.0,0.4373
970.0,0.4027
971.0,0.4575
972.0,0.4383
973.0,0.3851
974.0,0.366
975.0,0.3785
976.0,0.3613
977.0,0.4075
978.0,0.3887
979.0,0.4059
980.0,0.3824
981.0,0.4546
982.0,0.436
983.0,0.4193
984.0,0.467
985.0,0.4343
986.0,0.4744
987.0,0.466
988.0,0.4652
989.0,0.4724
990.0,0.4623
991.0,0.4739
992.0,0.4765
993.0,0.4669
994.0,0.4763
995.0,0.4756
996.0,0.4736
997.0,0.4742
998.0,0.4721
999.0,0.4703
1000.0,0.4672
1001.0,0.4728
1002.0,0.4606
1003.0,0.4645
1004.0,0.4534
1005.0,0.4364
1006.0,0.4536
1007.0,0.4632
1008.0,0.4608
1009.0,0.4585
1010.0,0.4567
1011.0,0.4608
1012.0,0.457
1013.0,0.4596
1014.0,0.4564
1015.0,0.4534
1016.0,0.4514
1017.0,0.4526
1018.0,0.4508
1019.0,0.4415
1020.0,0.4484
1021.0,0.4478
1022.0,0.4444
1023.0,0.4491
1024.0,0.4436
1025.0,0.4487
1026.0,0.4469
1027.0,0.4458
1028.0,0.4449
1029.0,0.4397
1030.0,0.4426
1031.0,0.4409
1032.0,0.4396
1033.0,0.4329
1034.0,0.433
1035.0,0.4343
1036.0,0.4366
1037.0,0.4295
1038.0,0.4314
1039.0,0.4312
1040.0,0.4294
1041.0,0.4312
1042.0,0.4282
1043.0,0.4268
1044.0,0.4283
1045.0,0.4225
1046.0,0.4179
1047.0,0.4217
1048.0,0.424
1049.0,0.4225
1050.0,0.4206
1051.0,0.42
1052.0,0.4184
1053.0,0.4151
1054.0,0.416
1055.0,0.4163
1056.0,0.4149
1057.0,0.4136
1058.0,0.4035
1059.0,0.404
1060.0,0.4034
1061.0,0.403
1062.0,0.4051
1063.0,0.4012
1064.0,0.4059
1065.0,0.4031
1066.0,0.3951
1067.0,0.4002
1068.0,0.3915
1069.0,0.3794
1070.0,0.3923
1071.0,0.3981
1072.0,0.3938
1073.0,0.3881
1074.0,0.3978
1075.0,0.3787
1076.0,0.3975
1077.0,0.3909
1078.0,0.3837
1079.0,0.391
1080.0,0.3849
1081.0,0.373
1082.0,0.3782
1083.0,0.3791
1084.0,0.3723
1085.0,0.3857
1086.0,0.3533
1087.0,0.3637
1088.0,0.3789
1089.0,0.3682
1090.0,0.3606
1091.0,0.3779
1092.0,0.3768
1093.0,0.3221
1094.0,0.345
1095.0,0.3352
1096.0,0.3217
1097.0,0.368
1098.0,0.317
1099.0,0.3303
1100.0,0.3082
1101.0,0.3117
1102.0,0.2984
1103.0,0.296
1104.0,0.2964
1105.0,0.3229
1106.0,0.2516
1107.0,0.3076
1108.0,0.2635
1109.0,0.2634
1110.0,0.3053
1111.0,0.2107
1112.0,0.2612
1113.0,0.17
1114.0,0.1896
1115.0,0.1573
1116.0,0.1279
1117.0,0.04946
1118.0,0.1383
1119.0,0.07059
1120.0,0.08895
1121.0,0.1168
1122.0,0.05087
1123.0,0.08031
1124.0,0.06781
1125.0,0.08799
1126.0,0.03232
1127.0,0.0991
1128.0,0.06111
1129.0,0.06457
1130.0,0.04324
1131.0,0.1837
1132.0,0.1449
1133.0,0.09412
1134.0,0.02543
1135.0,0.009459
1136.0,0.07934
1137.0,0.1811
1138.0,0.1281
1139.0,0.1866
1140.0,0.1576
1141.0,0.1217
1142.0,0.1391
1143.0,0.1957
1144.0,0.07055
1145.0,0.09071
1146.0,0.09787
1147.0,0.03618
1148.0,0.1694
1149.0,0.1366
1150.0,0.07572
1151.0,0.1271
1152.0,0.1549
1153.0,0.1497
1154.0,0.08824
1155.0,0.1947
1156.0,0.1762
1157.0,0.1964
1158.0,0.1942
1159.0,0.2083
1160.0,0.1794
1161.0,0.2183
1162.0,0.2196
1163.0,0.2917
1164.0,0.252
1165.0,0.2395
1166.0,0.2366
1167.0,0.2568
1168.0,0.26
1169.0,0.2655
1170.0,0.2871
1171.0,0.2801
1172.0,0.2843
1173.0,0.2865
1174.0,0.2087
1175.0,0.2792
1176.0,0.3048
1177.0,0.2939
1178.0,0.224
1179.0,0.3071
1180.0,0.2765
1181.0,0.2851
1182.0,0.2003
1183.0,0.2802
1184.0,0.2638
1185.0,0.2556
1186.0,0.2995
1187.0,0.2864
1188.0,0.2041
1189.0,0.267
1190.0,0.2927
1191.0,0.2798
1192.0,0.2965
1193.0,0.2848
1194.0,0.2931
1195.0,0.2786
1196.0,0.2692
1197.0,0.2925
1198.0,0.2687
1199.0,0.2317
1200.0,0.2814
1201.0,0.2725
1202.0,0.2702
1203.0,0.2681
1204.0,0.2361
1205.0,0.2756
1206.0,0.3026
1207.0,0.2699
1208.0,0.2647
1209.0,0.2699
1210.0,0.2804
1211.0,0.2683
1212.0,0.2665
1213.0,0.2934
1214.0,0.2722
1215.0,0.2673
1216.0,0.2924
1217.0,0.2853
1218.0,0.2901
1219.0,0.2868
1220.0,0.2903
1221.0,0.2928
1222.0,0.2856
1223.0,0.2832
1224.0,0.2819
1225.0,0.291
1226.0,0.2925
1227.0,0.2715
1228.0,0.2936
1229.0,0.2926
1230.0,0.2879
1231.0,0.295
1232.0,0.2933
1233.0,0.2846
1234.0,0.2945
1235.0,0.2928
1236.0,0.2948
1237.0,0.2912
1238.0,0.2938
1239.0,0.29
1240.0,0.2911
1241.0,0.29
1242.0,0.2891
1243.0,0.2867
1244.0,0.2889
1245.0,0.29
1246.0,0.2883
1247.0,0.2873
1248.0,0.2873
1249.0,0.288
1250.0,0.2864
1251.0,0.2829
1252.0,0.2827
1253.0,0.2809
1254.0,0.2784
1255.0,0.2825
1256.0,0.2754
1257.0,0.2741
1258.0,0.2786
1259.0,0.2698
1260.0,0.271
1261.0,0.2575
1262.0,0.2506
1263.0,0.2511
1264.0,0.2338
1265.0,0.2495
1266.0,0.2413
1267.0,0.2447
1268.0,0.2334
1269.0,0.1537
1270.0,0.2441
1271.0,0.2564
1272.0,0.257
1273.0,0.2545
1274.0,0.2551
1275.0,0.2585
1276.0,0.2606
1277.0,0.262
1278.0,0.2663
1279.0,0.264
1280.0,0.2606
1281.0,0.2484
1282.0,0.2388
1283.0,0.2573
1284.0,0.2636
1285.0,0.2652
1286.0,0.2685
1287.0,0.2649
1288.0,0.2647
1289.0,0.2573
1290.0,0.2623
1291.0,0.2658
1292.0,0.2516
1293.0,0.2611
1294.0,0.2593
1295.0,0.2586
1296.0,0.2481
1297.0,0.2357
1298.0,0.2517
1299.0,0.2612
1300.0,0.2245
1301.0,0.2307
1302.0,0.2508
1303.0,0.2211
1304.0,0.1917
1305.0,0.2459
1306.0,0.2461
1307.0,0.1948
1308.0,0.221
1309.0,0.2445
1310.0,0.1912
1311.0,0.2126
1312.0,0.2073
1313.0,0.2038
1314.0,0.1835
1315.0,0.1818
1316.0,0.2097
1317.0,0.199
1318.0,0.215
1319.0,0.1717
1320.0,0.1656
1321.0,0.1916
1322.0,0.1941
1323.0,0.149
1324.0,0.1684
1325.0,0.2069
1326.0,0.1795
1327.0,0.1717
1328.0,0.149
1329.0,0.1143
1330.0,0.1476
1331.0,0.09198
1332.0,0.09399
1333.0,0.1301
1334.0,0.1089
1335.0,0.1484
1336.0,0.1189
1337.0,0.1059
1338.0,0.1146
1339.0,0.1137
1340.0,0.1098
1341.0,0.1089
1342.0,0.1143
1343.0,0.0809
1344.0,0.04829
1345.0,0.06935
1346.0,0.03675
1347.0,0.03776
1348.0,0.002888
1349.0,0.009891
1350.0,0.00993
1351.0,0.002798
1352.0,0.000884
1353.0,5.397e-05
1354.0,0.0001661
1355.0,1.926e-06
1356.0,2.675e-05
1357.0,4.053e-05
1358.0,2.248e-06
1359.0,3.713e-07
1360.0,1.133e-06
1361.0,2.26e-09
1362.0,7.992e-12
1363.0,1.651e-06
1364.0,6.996e-07
1365.0,3.826e-12
1366.0,6.715e-06
1367.0,2.643e-06
1368.0,5.486e-14
1369.0,2.661e-07
1370.0,1.471e-07
1371.0,9.66e-09
1372.0,1.456e-06
1373.0,2.44e-05
1374.0,0.0001001
1375.0,0.0001821
1376.0,0.0001485
1377.0,7.005e-05
1378.0,0.0006454
1379.0,2.963e-05
1380.0,4.598e-05
1381.0,1.305e-06
1382.0,1.356e-06
1383.0,2.273e-08
1384.0,3.147e-07
1385.0,1.131e-06
1386.0,1.306e-06
1387.0,0.0001114
1388.0,2.238e-06
1389.0,0.0003306
1390.0,0.0002845
1391.0,0.0001955
1392.0,1.335e-05
1393.0,6.607e-05
1394.0,4.16e-05
1395.0,3.573e-07
1396.0,3.016e-09
1397.0,2.77e-05
1398.0,0.0007337
1399.0,0.0004648
1400.0,1.514e-09
1401.0,5.137e-09
1402.0,0.001097
1403.0,0.001421
1404.0,0.0004392
1405.0,1.919e-07
1406.0,0.001202
1407.0,0.0001031
1408.0,0.0009752
1409.0,0.0003589
1410.0,0.0002722
1411.0,0.001243
1412.0,0.001607
1413.0,0.01455
1414.0,0.0002125
1415.0,0.0001067
1416.0,0.02237
1417.0,0.007254
1418.0,0.008316
1419.0,0.001314
1420.0,0.005107
1421.0,0.005539
1422.0,0.02907
1423.0,0.00576
1424.0,0.01068
1425.0,0.01589
1426.0,0.0176
1427.0,0.03136
1428.0,0.002747
1429.0,0.0239
1430.0,0.03964
1431.0,0.04327
1432.0,0.002175
1433.0,0.02789
1434.0,0.01437
1435.0,0.01498
1436.0,0.02795
1437.0,0.02141
1438.0,0.009308
1439.0,0.03759
1440.0,0.02819
1441.0,0.02194
1442.0,0.02426
1443.0,0.02978
1444.0,0.04095
1445.0,0.03258
1446.0,0.01482
1447.0,0.02332
1448.0,0.07522
1449.0,0.06582
1450.0,0.01727
1451.0,0.007058
