interpolation:linear
wavelength,value
280.0,2.95e-21
280.5,9.244000000000001e-20
281.0,4.878e-19
281.5,3.25e-19
282.0,1.01e-18
282.5,2.693e-18
283.0,8.783e-18
283.5,1.442e-17
284.0,2.365e-16
284.5,6.839e-16
285.0,1.56e-15
285.5,7.579e-15
286.0,3.031e-14
286.5,1.336e-13
287.0,3.781e-13
287.5,1.429e-12
288.0,3.793e-12
288.5,1.263e-11
289.0,3.592e-11
289.5,1.139e-10
290.0,3.257e-10
290.5,6.779e-10
291.0,1.484e-09
291.5,4.34e-09
292.0,9.443e-09
292.5,1.423e-08
293.0,3.339e-08
293.5,9.186e-08
294.0,1.568e-07
294.5,2.029e-07
295.0,3.745e-07
295.5,9.838e-07
296.0,1.972e-06
296.5,2.876e-06
297.0,4.043e-06
297.5,1.154e-05
298.0,1.927e-05
298.5,2.034e-05
299.0,4.714e-05
299.5,8.586e-05
300.0,9.997e-05
300.5,0.0001542
301.0,0.0003125
301.5,0.0005636
302.0,0.0005201
302.5,0.001027
303.0,0.00187
303.5,0.002375
304.0,0.002245
304.5,0.003401
305.0,0.005256
305.5,0.00609
306.0,0.005921
306.5,0.007425
307.0,0.01118
307.5,0.01506
308.0,0.01594
308.5,0.01894
309.0,0.01867
309.5,0.0215
310.0,0.02167
310.5,0.03515
311.0,0.04423
311.5,0.04275
312.0,0.04295
312.5,0.05243
313.0,0.05697
313.5,0.05526
314.0,0.06934
314.5,0.06176
315.0,0.08123
315.5,0.06783
316.0,0.05945
316.5,0.08562
317.0,0.1063
317.5,0.1106
318.0,0.08644
318.5,0.1077
319.0,0.128
319.5,0.1041
320.0,0.1258
320.5,0.1579
321.0,0.141
321.5,0.1352
322.0,0.1438
322.5,0.1251
323.0,0.1248
323.5,0.1537
324.0,0.1794
324.5,0.1821
325.0,0.1572
325.5,0.2025
326.0,0.2477
326.5,0.2482
327.0,0.2474
327.5,0.239
328.0,0.2127
328.5,0.2237
329.0,0.2681
329.5,0.3044
330.0,0.3071
330.5,0.2458
331.0,0.2504
331.5,0.2546
332.0,0.2752
332.5,0.2723
333.0,0.2716
333.5,0.2458
334.0,0.2519
334.5,0.2908
335.0,0.2733
335.5,0.3193
336.0,0.221
336.5,0.2588
337.0,0.2124
337.5,0.2642
338.0,0.258
338.5,0.2979
339.0,0.295
339.5,0.2838
340.0,0.3336
340.5,0.3008
341.0,0.2934
341.5,0.2695
342.0,0.3221
342.5,0.3015
343.0,0.3316
343.5,0.3123
344.0,0.2309
344.5,0.2332
345.0,0.3088
345.5,0.3154
346.0,0.2681
346.5,0.3037
347.0,0.3261
347.5,0.2637
348.0,0.3007
348.5,0.3007
349.0,0.279
349.5,0.2764
350.0,0.3419
350.5,0.3608
351.0,0.3223
351.5,0.3133
352.0,0.3366
352.5,0.2628
353.0,0.3311
353.5,0.3542
354.0,0.3678
354.5,0.373
355.0,0.3719
355.5,0.3361
356.0,0.3517
356.5,0.3004
357.0,0.2483
357.5,0.304
358.0,0.241
358.5,0.206
359.0,0.2881
359.5,0.3673
360.0,0.3894
360.5,0.3113
361.0,0.2839
361.5,0.327
362.0,0.283
362.5,0.3918
363.0,0.352
363.5,0.3244
364.0,0.3968
364.5,0.3393
365.0,0.3457
365.5,0.434
366.0,0.4599
366.5,0.4323
367.0,0.4211
367.5,0.4371
368.0,0.3827
368.5,0.3863
369.0,0.4173
369.5,0.4449
370.0,0.4744
370.5,0.3683
371.0,0.3937
371.5,0.4926
372.0,0.327
372.5,0.3923
373.0,0.3992
373.5,0.2598
374.0,0.3776
374.5,0.3128
375.0,0.3042
375.5,0.4542
376.0,0.3766
376.5,0.3904
377.0,0.4134
377.5,0.4838
378.0,0.5246
378.5,0.4959
379.0,0.4094
379.5,0.374
380.0,0.3889
380.5,0.4712
381.0,0.4724
381.5,0.3746
382.0,0.3328
382.5,0.2838
383.0,0.2629
383.5,0.2533
384.0,0.2795
384.5,0.4112
385.0,0.4079
385.5,0.38
386.0,0.3255
386.5,0.4278
387.0,0.3555
387.5,0.3994
388.0,0.3689
388.5,0.3648
389.0,0.3939
389.5,0.4772
390.0,0.479
390.5,0.441
391.0,0.5192
391.5,0.5297
392.0,0.4463
392.5,0.3997
393.0,0.2225
393.5,0.1617
394.0,0.3292
394.5,0.4187
395.0,0.511
395.5,0.5192
396.0,0.4503
396.5,0.2633
397.0,0.1977
397.5,0.4021
398.0,0.5632
398.5,0.5823
399.0,0.6308
399.5,0.6289
400.0,0.6531
401.0,0.662
402.0,0.6988
403.0,0.6642
404.0,0.6542
405.0,0.6544
406.0,0.6441
407.0,0.6341
408.0,0.659
409.0,0.7056
410.0,0.6168
411.0,0.6684
412.0,0.7183
413.0,0.7007
414.0,0.7096
415.0,0.7118
416.0,0.7246
417.0,0.707
418.0,0.6942
419.0,0.7036
420.0,0.7007
421.0,0.7333
422.0,0.6972
423.0,0.6813
424.0,0.7208
425.0,0.7197
426.0,0.7014
427.0,0.6885
428.0,0.6708
429.0,0.6357
430.0,0.5565
431.0,0.5517
432.0,0.7126
433.0,0.7167
434.0,0.6657
435.0,0.6953
436.0,0.7838
437.0,0.7735
438.0,0.7046
439.0,0.7287
440.0,0.7521
441.0,0.7796
442.0,0.8363
443.0,0.8146
444.0,0.8325
445.0,0.8146
446.0,0.7777
447.0,0.8411
448.0,0.8542
449.0,0.8579
450.0,0.8821
451.0,0.915
452.0,0.8818
453.0,0.8295
454.0,0.8662
455.0,0.8717
456.0,0.8925
457.0,0.9075
458.0,0.8765
459.0,0.8721
460.0,0.8744
461.0,0.8947
462.0,0.9018
463.0,0.8956
464.0,0.8811
465.0,0.8703
466.0,0.8789
467.0,0.8628
468.0,0.873
469.0,0.8777
470.0,0.8497
471.0,0.8487
472.0,0.8943
473.0,0.8827
474.0,0.8839
475.0,0.8913
476.0,0.8644
477.0,0.8667
478.0,0.8909
479.0,0.8856
480.0,0.8875
481.0,0.9043
482.0,0.9092
483.0,0.8985
484.0,0.8802
485.0,0.8388
486.0,0.7334
487.0,0.7688
488.0,0.8434
489.0,0.846
490.0,0.8902
491.0,0.875
492.0,0.8263
493.0,0.8534
494.0,0.862
495.0,0.8694
496.0,0.8748
497.0,0.8883
498.0,0.8468
499.0,0.8576
500.0,0.8325
501.0,0.8171
502.0,0.8054
503.0,0.8379
504.0,0.8158
505.0,0.8457
506.0,0.873
507.0,0.8307
508.0,0.8051
509.0,0.8279
510.0,0.8237
511.0,0.846
512.0,0.8552
513.0,0.8095
514.0,0.804
515.0,0.7961
516.0,0.7941
517.0,0.7057
518.0,0.7419
519.0,0.7781
520.0,0.8064
521.0,0.814
522.0,0.8147
523.0,0.8
524.0,0.8285
525.0,0.838
526.0,0.8005
527.0,0.7541
528.0,0.7975
529.0,0.8405
530.0,0.8283
531.0,0.8405
532.0,0.8116
533.0,0.7879
534.0,0.8112
535.0,0.829
536.0,0.8367
537.0,0.8038
538.0,0.8181
539.0,0.8112
540.0,0.7777
541.0,0.7826
542.0,0.807
543.0,0.7987
544.0,0.8124
545.0,0.8099
546.0,0.8132
547.0,0.8131
548.0,0.8034
549.0,0.8059
550.0,0.8155
551.0,0.8057
552.0,0.8113
553.0,0.7967
554.0,0.8158
555.0,0.8173
556.0,0.8067
557.0,0.7815
558.0,0.7755
559.0,0.7609
560.0,0.7703
561.0,0.7802
562.0,0.7744
563.0,0.7953
564.0,0.7735
565.0,0.7667
566.0,0.7554
567.0,0.7695
568.0,0.7622
569.0,0.7432
570.0,0.7431
571.0,0.7389
572.0,0.756
573.0,0.764
574.0,0.7614
575.0,0.747
576.0,0.7402
577.0,0.7483
578.0,0.7374
579.0,0.7407
580.0,0.7554
581.0,0.7598
582.0,0.7746
583.0,0.7769
584.0,0.7838
585.0,0.7648
586.0,0.7491
587.0,0.7653
588.0,0.7455
589.0,0.6583
590.0,0.6887
591.0,0.73
592.0,0.7201
593.0,0.7317
594.0,0.7262
595.0,0.7075
596.0,0.7372
597.0,0.7288
598.0,0.7274
599.0,0.7283
600.0,0.7298
601.0,0.7242
602.0,0.7193
603.0,0.7314
604.0,0.7436
605.0,0.7399
606.0,0.737
607.0,0.7445
608.0,0.7365
609.0,0.7379
610.0,0.7328
611.0,0.7368
612.0,0.7347
613.0,0.7256
614.0,0.7158
615.0,0.7316
616.0,0.7076
617.0,0.7063
618.0,0.7335
619.0,0.7262
620.0,0.7308
621.0,0.7313
622.0,0.7226
623.0,0.7115
624.0,0.6994
625.0,0.6978
626.0,0.7081
627.0,0.7157
628.0,0.6634
629.0,0.697
630.0,0.6808
631.0,0.6978
632.0,0.6898
633.0,0.7115
634.0,0.7051
635.0,0.7163
636.0,0.7072
637.0,0.719
638.0,0.7263
639.0,0.7183
640.0,0.7116
641.0,0.7113
642.0,0.7083
643.0,0.7178
644.0,0.7157
645.0,0.7168
646.0,0.6995
647.0,0.6898
648.0,0.6904
649.0,0.6769
650.0,0.6819
651.0,0.7118
652.0,0.6803
653.0,0.7024
654.0,0.6948
655.0,0.668
656.0,0.5927
657.0,0.6087
658.0,0.6827
659.0,0.6878
660.0,0.6908
661.0,0.6957
662.0,0.6968
663.0,0.6831
664.0,0.6917
665.0,0.6927
666.0,0.6934
667.0,0.6929
668.0,0.6934
669.0,0.7043
670.0,0.7013
671.0,0.7012
672.0,0.6953
673.0,0.7059
674.0,0.7033
675.0,0.697
676.0,0.7018
677.0,0.6949
678.0,0.697
679.0,0.6858
680.0,0.6913
681.0,0.6868
682.0,0.6859
683.0,0.6846
684.0,0.6812
685.0,0.6871
686.0,0.6829
687.0,0.432
688.0,0.5163
689.0,0.5185
690.0,0.5473
691.0,0.5799
692.0,0.6042
693.0,0.5989
694.0,0.5941
695.0,0.6213
696.0,0.6222
697.0,0.6636
698.0,0.6532
699.0,0.6354
700.0,0.6277
701.0,0.6206
702.0,0.6257
703.0,0.6269
704.0,0.6483
705.0,0.6492
706.0,0.6492
707.0,0.6499
708.0,0.6512
709.0,0.6529
710.0,0.6525
711.0,0.6519
712.0,0.6503
713.0,0.6434
714.0,0.6459
715.0,0.6247
716.0,0.6248
717.0,0.5341
718.0,0.4895
719.0,0.4477
720.0,0.4683
721.0,0.5217
722.0,0.6019
723.0,0.5577
724.0,0.4994
725.0,0.4903
726.0,0.5137
727.0,0.523
728.0,0.4888
729.0,0.5099
730.0,0.5393
731.0,0.5152
732.0,0.554
733.0,0.5893
734.0,0.6041
735.0,0.5912
736.0,0.5904
737.0,0.5927
738.0,0.6038
739.0,0.5919
740.0,0.6079
741.0,0.6022
742.0,0.6031
743.0,0.6186
744.0,0.6171
745.0,0.6174
746.0,0.6202
747.0,0.6216
748.0,0.6203
749.0,0.6132
750.0,0.6129
751.0,0.6067
752.0,0.6093
753.0,0.6124
754.0,0.6138
755.0,0.6103
756.0,0.6101
757.0,0.611
758.0,0.6033
759.0,0.5899
760.0,0.07887
761.0,0.0382
762.0,0.2785
763.0,0.1271
764.0,0.2014
765.0,0.2784
766.0,0.3526
767.0,0.4562
768.0,0.5359
769.0,0.5493
770.0,0.5704
771.0,0.5761
772.0,0.5776
773.0,0.5817
774.0,0.579
775.0,0.5746
776.0,0.5817
777.0,0.574
778.0,0.5705
779.0,0.571
780.0,0.5678
781.0,0.5684
782.0,0.572
783.0,0.5621
784.0,0.5648
785.0,0.5605
786.0,0.5666
787.0,0.5558
788.0,0.5484
789.0,0.5481
790.0,0.5322
791.0,0.5381
792.0,0.5343
793.0,0.5255
794.0,0.5359
795.0,0.5446
796.0,0.526
797.0,0.5266
798.0,0.5438
799.0,0.5399
800.0,0.5301
801.0,0.528
802.0,0.5265
803.0,0.5223
804.0,0.5232
805.0,0.5221
806.0,0.5377
807.0,0.531
808.0,0.5316
809.0,0.5209
810.0,0.5161
811.0,0.5158
812.0,0.4998
813.0,0.4886
814.0,0.4258
815.0,0.4234
816.0,0.3936
817.0,0.4012
818.0,0.3852
819.0,0.4342
820.0,0.4076
821.0,0.4815
822.0,0.4669
823.0,0.3097
824.0,0.4515
825.0,0.473
826.0,0.4535
827.0,0.4802
828.0,0.4024
829.0,0.451
830.0,0.4447
831.0,0.4463
832.0,0.4318
833.0,0.4617
834.0,0.4438
835.0,0.491
836.0,0.4678
837.0,0.4925
838.0,0.4761
839.0,0.4853
840.0,0.4962
841.0,0.4887
842.0,0.4905
843.0,0.491
844.0,0.4837
845.0,0.5007
846.0,0.4986
847.0,0.4895
848.0,0.4862
849.0,0.4723
850.0,0.4526
851.0,0.4788
852.0,0.4756
853.0,0.4581
854.0,0.3953
855.0,0.4346
856.0,0.4748
857.0,0.4857
858.0,0.482
859.0,0.4826
860.0,0.4835
861.0,0.4808
862.0,0.4885
863.0,0.5
864.0,0.475
865.0,0.4709
866.0,0.4234
867.0,0.4419
868.0,0.4808
869.0,0.4709
870.0,0.4843
871.0,0.4777
872.0,0.4761
873.0,0.4751
874.0,0.4695
875.0,0.4599
876.0,0.4647
877.0,0.4694
878.0,0.4744
879.0,0.4672
880.0,0.4572
881.0,0.4501
882.0,0.4598
883.0,0.4614
884.0,0.4592
885.0,0.4627
886.0,0.4403
887.0,0.4455
888.0,0.4517
889.0,0.4575
890.0,0.4529
891.0,0.4525
892.0,0.4385
893.0,0.4237
894.0,0.4067
895.0,0.3816
896.0,0.3586
897.0,0.3047
898.0,0.3343
899.0,0.2503
900.0,0.3444
901.0,0.2624
902.0,0.3133
903.0,0.3146
904.0,0.4037
905.0,0.3887
906.0,0.3628
907.0,0.2896
908.0,0.2961
909.0,0.3231
910.0,0.2814
911.0,0.3028
912.0,0.3173
913.0,0.2854
914.0,0.2838
915.0,0.3077
916.0,0.2595
917.0,0.3339
918.0,0.2658
919.0,0.3412
920.0,0.3474
921.0,0.3615
922.0,0.32
923.0,0.3495
924.0,0.3275
925.0,0.3204
926.0,0.3236
927.0,0.3655
928.0,0.259
929.0,0.2339
930.0,0.1798
931.0,0.1709
932.0,0.1189
933.0,0.09457
934.0,0.04757
935.0,0.09847
936.0,0.05872
937.0,0.05925
938.0,0.07393
939.0,0.1655
940.0,0.202
941.0,0.1485
942.0,0.1743
943.0,0.1115
944.0,0.1204
945.0,0.1539
946.0,0.07416
947.0,0.1535
948.0,0.1122
949.0,0.2096
950.0,0.05208
951.0,0.2072
952.0,0.1058
953.0,0.1403
954.0,0.1761
955.0,0.1423
956.0,0.141
957.0,0.1055
958.0,0.2051
959.0,0.1583
960.0,0.1774
961.0,0.2028
962.0,0.1915
963.0,0.224
964.0,0.2042
965.0,0.2233
966.0,0.2227
967.0,0.2214
968.0,0.3085
969.0,0.321
970.0,0.2934
971.0,0.3409
972.0,0.3251
973.0,0.2779
974.0,0.2631
975.0,0.2751
976.0,0.2584
977.0,0.2997
978.0,0.2823
979.0,0.2973
980.0,0.2786
981.0,0.3391
982.0,0.3224
983.0,0.3084
984.0,0.3517
985.0,0.3212
986.0,0.3592
987.0,0.3506
988.0,0.35
989.0,0.3589
990.0,0.3479
991.0,0.3598
992.0,0.3621
993.0,0.3525
994.0,0.3621
995.0,0.3619
996.0,0.3601
997.0,0.3607
998.0,0.3589
999.0,0.3577
1000.0,0.3548
1001.0,0.3596
1002.0,0.3482
1003.0,0.3532
1004.0,0.3442
1005.0,0.3321
1006.0,0.3448
1007.0,0.3522
1008.0,0.3501
1009.0,0.3479
1010.0,0.3463
1011.0,0.3505
1012.0,0.3472
1013.0,0.3497
1014.0,0.3473
1015.0,0.3449
1016.0,0.3433
1017.0,0.3442
1018.0,0.343
1019.0,0.3352
1020.0,0.3411
1021.0,0.3408
1022.0,0.3379
1023.0,0.3415
1024.0,0.3364
1025.0,0.3414
1026.0,0.3398
1027.0,0.3391
1028.0,0.3383
1029.0,0.3343
1030.0,0.3368
1031.0,0.3353
1032.0,0.3344
1033.0,0.3294
1034.0,0.3294
1035.0,0.3304
1036.0,0.3321
1037.0,0.3267
1038.0,0.3281
1039.0,0.3279
1040.0,0.3266
1041.0,0.3278
1042.0,0.3255
1043.0,0.3245
1044.0,0.3256
1045.0,0.3211
1046.0,0.3175
1047.0,0.3203
1048.0,0.3221
1049.0,0.3208
1050.0,0.3193
1051.0,0.3188
1052.0,0.3175
1053.0,0.3149
1054.0,0.3155
1055.0,0.3156
1056.0,0.3144
1057.0,0.3133
1058.0,0.3055
1059.0,0.3058
1060.0,0.3052
1061.0,0.3048
1062.0,0.3063
1063.0,0.3032
1064.0,0.3069
1065.0,0.3044
1066.0,0.2986
1067.0,0.3024
1068.0,0.2956
1069.0,0.2866
1070.0,0.2962
1071.0,0.3013
1072.0,0.2974
1073.0,0.2932
1074.0,0.3014
1075.0,0.2847
1076.0,0.3011
1077.0,0.2948
1078.0,0.2888
1079.0,0.2965
1080.0,0.2903
1081.0,0.2802
1082.0,0.286
1083.0,0.2872
1084.0,0.2791
1085.0,0.2911
1086.0,0.2633
1087.0,0.2734
1088.0,0.2867
1089.0,0.2764
1090.0,0.2694
1091.0,0.2853
1092.0,0.2849
1093.0,0.2374
1094.0,0.2602
1095.0,0.2478
1096.0,0.236
1097.0,0.2784
1098.0,0.2318
1099.0,0.2424
1100.0,0.2236
1101.0,0.227
1102.0,0.2156
1103.0,0.2127
1104.0,0.2131
1105.0,0.2365
1106.0,0.1739
1107.0,0.2233
1108.0,0.1851
1109.0,0.1863
1110.0,0.2207
1111.0,0.1442
1112.0,0.1851
1113.0,0.1122
1114.0,0.1259
1115.0,0.1041
1116.0,0.07985
1117.0,0.026
1118.0,0.08793
1119.0,0.04082
1120.0,0.05112
1121.0,0.0695
1122.0,0.02687
1123.0,0.04632
1124.0,0.03906
1125.0,0.05165
1126.0,0.01567
1127.0,0.05848
1128.0,0.03242
1129.0,0.03473
1130.0,0.02202
1131.0,0.1173
1132.0,0.09081
1133.0,0.05407
1134.0,0.01203
1135.0,0.004618
1136.0,0.04389
1137.0,0.114
1138.0,0.07967
1139.0,0.1258
1140.0,0.1024
1141.0,0.07578
1142.0,0.08855
1143.0,0.1287
1144.0,0.04167
1145.0,0.05221
1146.0,0.05627
1147.0,0.01744
1148.0,0.1112
1149.0,0.0867
1150.0,0.04525
1151.0,0.07902
1152.0,0.09972
1153.0,0.09906
1154.0,0.05038
1155.0,0.1311
1156.0,0.1167
1157.0,0.1333
1158.0,0.1318
1159.0,0.1439
1160.0,0.1212
1161.0,0.1531
1162.0,0.1536
1163.0,0.2137
1164.0,0.181
1165.0,0.1686
1166.0,0.1691
1167.0,0.1853
1168.0,0.1868
1169.0,0.1919
1170.0,0.2104
1171.0,0.205
1172.0,0.2098
1173.0,0.21
1174.0,0.1456
1175.0,0.206
1176.0,0.2288
1177.0,0.2181
1178.0,0.1606
1179.0,0.2307
1180.0,0.2034
1181.0,0.2101
1182.0,0.1415
1183.0,0.2074
1184.0,0.1932
1185.0,0.1854
1186.0,0.2233
1187.0,0.2116
1188.0,0.1434
1189.0,0.1969
1190.0,0.2183
1191.0,0.2053
1192.0,0.2216
1193.0,0.2117
1194.0,0.2186
1195.0,0.2054
1196.0,0.197
1197.0,0.2194
1198.0,0.1999
1199.0,0.1671
1200.0,0.2089
1201.0,0.2005
1202.0,0.2001
1203.0,0.1981
1204.0,0.1718
1205.0,0.2055
1206.0,0.2285
1207.0,0.1992
1208.0,0.1969
1209.0,0.2012
1210.0,0.2102
1211.0,0.1991
1212.0,0.1954
1213.0,0.2203
1214.0,0.2006
1215.0,0.1966
1216.0,0.2197
1217.0,0.2134
1218.0,0.2179
1219.0,0.2149
1220.0,0.2182
1221.0,0.2207
1222.0,0.2147
1223.0,0.2124
1224.0,0.2107
1225.0,0.2192
1226.0,0.221
1227.0,0.2025
1228.0,0.2224
1229.0,0.2211
1230.0,0.217
1231.0,0.2241
1232.0,0.2227
1233.0,0.2139
1234.0,0.2242
1235.0,0.2226
1236.0,0.2243
1237.0,0.2207
1238.0,0.2236
1239.0,0.2207
1240.0,0.2216
1241.0,0.2203
1242.0,0.22
1243.0,0.2183
1244.0,0.2197
1245.0,0.2207
1246.0,0.2194
1247.0,0.2185
1248.0,0.2182
1249.0,0.219
1250.0,0.2176
1251.0,0.2146
1252.0,0.2149
1253.0,0.2128
1254.0,0.2103
1255.0,0.2146
1256.0,0.2078
1257.0,0.2065
1258.0,0.211
1259.0,0.2022
1260.0,0.2034
1261.0,0.1905
1262.0,0.184
1263.0,0.1843
1264.0,0.1684
1265.0,0.1832
1266.0,0.1752
1267.0,0.179
1268.0,0.1686
1269.0,0.09732
1270.0,0.1781
1271.0,0.19
1272.0,0.1908
1273.0,0.1886
1274.0,0.1895
1275.0,0.1925
1276.0,0.1946
1277.0,0.1963
1278.0,0.2006
1279.0,0.1988
1280.0,0.1963
1281.0,0.1876
1282.0,0.1812
1283.0,0.1951
1284.0,0.1996
1285.0,0.201
1286.0,0.204
1287.0,0.2004
1288.0,0.2005
1289.0,0.1932
1290.0,0.1987
1291.0,0.2017
1292.0,0.1878
1293.0,0.1974
1294.0,0.1959
1295.0,0.1945
1296.0,0.1846
1297.0,0.1738
1298.0,0.1888
1299.0,0.1978
1300.0,0.1646
1301.0,0.1702
1302.0,0.1882
1303.0,0.1627
1304.0,0.1361
1305.0,0.1841
1306.0,0.184
1307.0,0.14
1308.0,0.1634
1309.0,0.1822
1310.0,0.1372
1311.0,0.1561
1312.0,0.1514
1313.0,0.148
1314.0,0.1315
1315.0,0.1292
1316.0,0.1531
1317.0,0.1447
1318.0,0.1584
1319.0,0.1205
1320.0,0.1175
1321.0,0.138
1322.0,0.1388
1323.0,0.1017
1324.0,0.1183
1325.0,0.1507
1326.0,0.1276
1327.0,0.1213
1328.0,0.1036
1329.0,0.07542
1330.0,0.09941
1331.0,0.05718
1332.0,0.05998
1333.0,0.08409
1334.0,0.07277
1335.0,0.1013
1336.0,0.07854
1337.0,0.06876
1338.0,0.07436
1339.0,0.07444
1340.0,0.07321
1341.0,0.06962
1342.0,0.07331
1343.0,0.04611
1344.0,0.02788
1345.0,0.04027
1346.0,0.01791
1347.0,0.01785
1348.0,0.0009035
1349.0,0.003474
1350.0,0.003788
1351.0,0.0007345
1352.0,0.0001529
1353.0,6.073e-06
1354.0,2.492e-05
1355.0,1.168e-07
1356.0,2.924e-06
1357.0,4.473e-06
1358.0,1.415e-07
1359.0,1.175e-08
1360.0,5.582e-08
1361.0,2.637e-11
1362.0,5.141e-14
1363.0,6.506e-08
1364.0,2.695e-08
1365.0,1.128e-14
1366.0,3.174e-07
1367.0,1.431e-07
1368.0,3.704e-17
1369.0,9.918e-09
1370.0,4.102e-09
1371.0,1.905e-10
1372.0,7.924e-08
1373.0,2.104e-06
1374.0,1.185e-05
1375.0,2.106e-05
1376.0,2.269e-05
1377.0,9.99e-06
1378.0,0.0001049
1379.0,4.192e-06
1380.0,5.325e-06
1381.0,1.26e-07
1382.0,6.788e-08
1383.0,8.871e-10
1384.0,1.041e-08
1385.0,7.895e-08
1386.0,5.326e-08
1387.0,1.078e-05
1388.0,2.192e-07
1389.0,4.577e-05
1390.0,3.9e-05
1391.0,2.519e-05
1392.0,1.562e-06
1393.0,9.16e-06
1394.0,3.422e-06
1395.0,2.065e-08
1396.0,4.277e-11
1397.0,3.385e-06
1398.0,0.0001149
1399.0,7.358e-05
1400.0,1.463e-11
1401.0,8.361e-11
1402.0,0.0002717
1403.0,0.0003231
1404.0,9.602e-05
1405.0,8.641e-09
1406.0,0.0002273
1407.0,2.191e-05
1408.0,0.0001893
1409.0,5.427e-05
1410.0,4.891e-05
1411.0,0.0002874
1412.0,0.0004184
1413.0,0.005346
1414.0,3.945e-05
1415.0,1.763e-05
1416.0,0.01019
1417.0,0.002655
1418.0,0.002914
1419.0,0.0004362
1420.0,0.00177
1421.0,0.001946
1422.0,0.01338
1423.0,0.002489
1424.0,0.004795
1425.0,0.006817
1426.0,0.00829
1427.0,0.01647
1428.0,0.0008288
1429.0,0.01167
1430.0,0.02158
1431.0,0.02413
1432.0,0.0006451
1433.0,0.01478
1434.0,0.007236
1435.0,0.006297
1436.0,0.01357
