interpolation:linear
wavelength,value
280.0,9.4e-20
280.5,2.548e-18
281.0,1.003e-19
281.5,5.013e-19
282.0,2.411e-18
282.5,7.028e-18
283.0,2.383e-17
283.5,3.958e-17
284.0,6.3e-16
284.5,1.782e-15
285.0,4.201e-15
285.5,2.732e-14
286.0,1.191e-13
286.5,5.979e-13
287.0,1.826e-12
287.5,7.465e-12
288.0,2.274e-11
288.5,9.089e-11
289.0,3.078e-10
289.5,1.167e-09
290.0,3.851e-09
290.5,9.04e-09
291.0,2.277e-08
291.5,7.925e-08
292.0,2.018e-07
292.5,3.14e-07
293.0,7.672e-07
293.5,2.234e-06
294.0,4.012e-06
294.5,5.151e-06
295.0,9.839e-06
295.5,2.279e-05
296.0,4.253e-05
296.5,5.752e-05
297.0,7.569e-05
297.5,0.0001944
298.0,0.0002952
298.5,0.0002884
299.0,0.0006177
299.5,0.000973
300.0,0.00104
300.5,0.00146
301.0,0.002512
301.5,0.003822
302.0,0.003193
302.5,0.00597
303.0,0.01013
303.5,0.0123
304.0,0.01127
304.5,0.01576
305.0,0.02183
305.5,0.02364
306.0,0.02239
306.5,0.02691
307.0,0.03694
307.5,0.04565
308.0,0.04765
308.5,0.05431
309.0,0.05208
309.5,0.05671
310.0,0.05565
310.5,0.08909
311.0,0.1097
311.5,0.105
312.0,0.1006
312.5,0.119
313.0,0.1272
313.5,0.1252
314.0,0.1513
314.5,0.1282
315.0,0.1671
315.5,0.1428
316.0,0.1203
316.5,0.1673
317.0,0.2078
317.5,0.2182
318.0,0.1666
318.5,0.1984
319.0,0.2306
319.5,0.1943
320.0,0.2359
320.5,0.283
321.0,0.2427
321.5,0.2318
322.0,0.2571
322.5,0.2232
323.0,0.2165
323.5,0.2593
324.0,0.3014
324.5,0.3092
325.0,0.2709
325.5,0.341
326.0,0.414
326.5,0.4087
327.0,0.4094
327.5,0.398
328.0,0.361
328.5,0.3708
329.0,0.436
329.5,0.4922
330.0,0.4986
330.5,0.4045
331.0,0.414
331.5,0.4164
332.0,0.4431
332.5,0.4353
333.0,0.4357
333.5,0.3986
334.0,0.409
334.5,0.466
335.0,0.4347
335.5,0.5076
336.0,0.3512
336.5,0.4126
337.0,0.3402
337.5,0.4239
338.0,0.4096
338.5,0.4726
339.0,0.4675
339.5,0.4497
340.0,0.5285
340.5,0.4759
341.0,0.4642
341.5,0.426
342.0,0.5089
342.5,0.476
343.0,0.5235
343.5,0.493
344.0,0.3641
344.5,0.3679
345.0,0.4866
345.5,0.4966
346.0,0.4219
346.5,0.4775
347.0,0.5127
347.5,0.4145
348.0,0.4723
348.5,0.472
349.0,0.4377
349.5,0.4333
350.0,0.5358
350.5,0.5651
351.0,0.5048
351.5,0.4907
352.0,0.5269
352.5,0.411
353.0,0.5175
353.5,0.5532
354.0,0.5743
354.5,0.5824
355.0,0.5804
355.5,0.5242
356.0,0.5483
356.5,0.4682
357.0,0.3868
357.5,0.4735
358.0,0.3752
358.5,0.3206
359.0,0.4485
359.5,0.5716
360.0,0.6058
360.5,0.4842
361.0,0.4413
361.5,0.5079
362.0,0.4391
362.5,0.6075
363.0,0.5455
363.5,0.5023
364.0,0.6142
364.5,0.525
365.0,0.5346
365.5,0.6709
366.0,0.7107
366.5,0.6676
367.0,0.6501
367.5,0.6746
368.0,0.5903
368.5,0.5956
369.0,0.6431
369.5,0.6854
370.0,0.7305
370.5,0.5669
371.0,0.6057
371.5,0.7577
372.0,0.5029
372.5,0.6029
373.0,0.6132
373.5,0.399
374.0,0.5797
374.5,0.48
375.0,0.4666
375.5,0.6966
376.0,0.5774
376.5,0.5984
377.0,0.6334
377.5,0.741
378.0,0.8033
378.5,0.7592
379.0,0.6266
379.5,0.5724
380.0,0.5951
380.5,0.7207
381.0,0.7221
381.5,0.5723
382.0,0.5082
382.5,0.4331
383.0,0.401
383.5,0.3861
384.0,0.4259
384.5,0.6264
385.0,0.6212
385.5,0.5784
386.0,0.4954
386.5,0.6506
387.0,0.5406
387.5,0.6072
388.0,0.5606
388.5,0.5541
389.0,0.5981
389.5,0.7244
390.0,0.727
390.5,0.669
391.0,0.7874
391.5,0.8031
392.0,0.6764
392.5,0.6055
393.0,0.3369
393.5,0.2449
394.0,0.4983
394.5,0.6334
395.0,0.7729
395.5,0.7852
396.0,0.6807
396.5,0.3979
397.0,0.2986
397.5,0.6072
398.0,0.8503
398.5,0.8789
399.0,0.9515
399.5,0.9484
400.0,0.9848
401.0,1.001
402.0,1.056
403.0,1.003
404.0,0.9873
405.0,0.9871
406.0,0.9708
407.0,0.9549
408.0,0.9922
409.0,1.062
410.0,0.9276
411.0,1.005
412.0,1.079
413.0,1.052
414.0,1.065
415.0,1.067
416.0,1.085
417.0,1.059
418.0,1.039
419.0,1.053
420.0,1.048
421.0,1.096
422.0,1.042
423.0,1.017
424.0,1.076
425.0,1.074
426.0,1.045
427.0,1.026
428.0,0.9992
429.0,0.9461
430.0,0.8278
431.0,0.8206
432.0,1.059
433.0,1.065
434.0,0.9887
435.0,1.033
436.0,1.163
437.0,1.147
438.0,1.044
439.0,1.08
440.0,1.115
441.0,1.155
442.0,1.238
443.0,1.206
444.0,1.232
445.0,1.205
446.0,1.15
447.0,1.242
448.0,1.262
449.0,1.267
450.0,1.302
451.0,1.35
452.0,1.3
453.0,1.223
454.0,1.276
455.0,1.284
456.0,1.314
457.0,1.336
458.0,1.291
459.0,1.284
460.0,1.287
461.0,1.317
462.0,1.327
463.0,1.317
464.0,1.295
465.0,1.278
466.0,1.29
467.0,1.267
468.0,1.282
469.0,1.288
470.0,1.247
471.0,1.245
472.0,1.312
473.0,1.295
474.0,1.298
475.0,1.309
476.0,1.271
477.0,1.275
478.0,1.31
479.0,1.302
480.0,1.304
481.0,1.327
482.0,1.334
483.0,1.317
484.0,1.289
485.0,1.228
486.0,1.073
487.0,1.124
488.0,1.233
489.0,1.238
490.0,1.302
491.0,1.279
492.0,1.208
493.0,1.247
494.0,1.259
495.0,1.27
496.0,1.278
497.0,1.298
498.0,1.237
499.0,1.253
500.0,1.217
501.0,1.195
502.0,1.179
503.0,1.228
504.0,1.199
505.0,1.24
506.0,1.28
507.0,1.218
508.0,1.179
509.0,1.212
510.0,1.205
511.0,1.237
512.0,1.25
513.0,1.183
514.0,1.174
515.0,1.163
516.0,1.16
517.0,1.03
518.0,1.083
519.0,1.136
520.0,1.178
521.0,1.189
522.0,1.19
523.0,1.169
524.0,1.211
525.0,1.226
526.0,1.172
527.0,1.104
528.0,1.168
529.0,1.232
530.0,1.214
531.0,1.233
532.0,1.19
533.0,1.156
534.0,1.189
535.0,1.215
536.0,1.226
537.0,1.177
538.0,1.198
539.0,1.188
540.0,1.139
541.0,1.147
542.0,1.184
543.0,1.171
544.0,1.192
545.0,1.188
546.0,1.194
547.0,1.192
548.0,1.178
549.0,1.181
550.0,1.195
551.0,1.181
552.0,1.189
553.0,1.168
554.0,1.196
555.0,1.198
556.0,1.183
557.0,1.146
558.0,1.138
559.0,1.117
560.0,1.131
561.0,1.146
562.0,1.138
563.0,1.17
564.0,1.139
565.0,1.129
566.0,1.113
567.0,1.134
568.0,1.126
569.0,1.101
570.0,1.101
571.0,1.093
572.0,1.121
573.0,1.133
574.0,1.13
575.0,1.11
576.0,1.099
577.0,1.111
578.0,1.094
579.0,1.097
580.0,1.116
581.0,1.121
582.0,1.141
583.0,1.143
584.0,1.152
585.0,1.123
586.0,1.1
587.0,1.125
588.0,1.101
589.0,0.9813
590.0,1.026
591.0,1.082
592.0,1.07
593.0,1.083
594.0,1.077
595.0,1.052
596.0,1.089
597.0,1.078
598.0,1.074
599.0,1.075
600.0,1.075
601.0,1.065
602.0,1.058
603.0,1.075
604.0,1.093
605.0,1.087
606.0,1.082
607.0,1.092
608.0,1.079
609.0,1.081
610.0,1.073
611.0,1.078
612.0,1.074
613.0,1.061
614.0,1.046
615.0,1.068
616.0,1.033
617.0,1.03
618.0,1.07
619.0,1.059
620.0,1.065
621.0,1.067
622.0,1.055
623.0,1.039
624.0,1.021
625.0,1.019
626.0,1.034
627.0,1.046
628.0,0.9898
629.0,1.026
630.0,1.003
631.0,1.021
632.0,1.008
633.0,1.037
634.0,1.026
635.0,1.041
636.0,1.026
637.0,1.043
638.0,1.052
639.0,1.039
640.0,1.029
641.0,1.028
642.0,1.023
643.0,1.036
644.0,1.032
645.0,1.034
646.0,1.012
647.0,1.003
648.0,1.004
649.0,0.9852
650.0,0.9856
651.0,1.027
652.0,0.9895
653.0,1.014
654.0,1.002
655.0,0.967
656.0,0.8554
657.0,0.8782
658.0,0.9829
659.0,0.9893
660.0,0.9931
661.0,1.0
662.0,1.003
663.0,0.9827
664.0,0.9931
665.0,0.993
666.0,0.9934
667.0,0.992
668.0,0.9919
669.0,1.007
670.0,1.002
671.0,1.002
672.0,0.9932
673.0,1.008
674.0,1.004
675.0,0.9947
676.0,1.001
677.0,0.9913
678.0,0.9939
679.0,0.9777
680.0,0.9855
681.0,0.9789
682.0,0.9776
683.0,0.9757
684.0,0.9709
685.0,0.979
686.0,0.9734
687.0,0.7013
688.0,0.7952
689.0,0.7972
690.0,0.8274
691.0,0.8609
692.0,0.8844
693.0,0.8781
694.0,0.8709
695.0,0.9003
696.0,0.9016
697.0,0.9483
698.0,0.9337
699.0,0.9169
700.0,0.9059
701.0,0.8984
702.0,0.9026
703.0,0.9042
704.0,0.9299
705.0,0.9313
706.0,0.9292
707.0,0.9294
708.0,0.9315
709.0,0.9308
710.0,0.9318
711.0,0.9298
712.0,0.9261
713.0,0.9176
714.0,0.9209
715.0,0.8939
716.0,0.895
717.0,0.7964
718.0,0.7351
719.0,0.6756
720.0,0.7091
721.0,0.7701
722.0,0.8673
723.0,0.8146
724.0,0.7421
725.0,0.733
726.0,0.7657
727.0,0.772
728.0,0.7321
729.0,0.7521
730.0,0.7956
731.0,0.7636
732.0,0.8091
733.0,0.849
734.0,0.8672
735.0,0.8503
736.0,0.8491
737.0,0.8527
738.0,0.861
739.0,0.8442
740.0,0.8646
741.0,0.8552
742.0,0.8551
743.0,0.8766
744.0,0.8736
745.0,0.8733
746.0,0.8773
747.0,0.8791
748.0,0.8772
749.0,0.8672
750.0,0.8666
751.0,0.8578
752.0,0.8614
753.0,0.8657
754.0,0.8677
755.0,0.8628
756.0,0.8624
757.0,0.8636
758.0,0.853
759.0,0.8385
760.0,0.1968
761.0,0.1166
762.0,0.4854
763.0,0.2774
764.0,0.3858
765.0,0.4857
766.0,0.5691
767.0,0.6916
768.0,0.7775
769.0,0.7892
770.0,0.811
771.0,0.8152
772.0,0.8163
773.0,0.8218
774.0,0.8177
775.0,0.8113
776.0,0.8211
777.0,0.8103
778.0,0.8054
779.0,0.8061
780.0,0.8015
781.0,0.8023
782.0,0.8073
783.0,0.7931
784.0,0.7969
785.0,0.7912
786.0,0.8
787.0,0.7882
788.0,0.7794
789.0,0.7794
790.0,0.7618
791.0,0.7653
792.0,0.7593
793.0,0.7474
794.0,0.7569
795.0,0.7705
796.0,0.7511
797.0,0.7521
798.0,0.77
799.0,0.7659
800.0,0.7537
801.0,0.7522
802.0,0.75
803.0,0.7448
804.0,0.7453
805.0,0.7418
806.0,0.7606
807.0,0.7519
808.0,0.7524
809.0,0.7398
810.0,0.7348
811.0,0.7378
812.0,0.7196
813.0,0.7065
814.0,0.6317
815.0,0.6275
816.0,0.5855
817.0,0.5949
818.0,0.5749
819.0,0.6339
820.0,0.6005
821.0,0.6899
822.0,0.6722
823.0,0.4764
824.0,0.6567
825.0,0.6785
826.0,0.6564
827.0,0.6888
828.0,0.5948
829.0,0.6516
830.0,0.6443
831.0,0.6461
832.0,0.6283
833.0,0.6628
834.0,0.643
835.0,0.6987
836.0,0.6735
837.0,0.7003
838.0,0.6806
839.0,0.6893
840.0,0.7038
841.0,0.6947
842.0,0.6948
843.0,0.693
844.0,0.6842
845.0,0.7062
846.0,0.7029
847.0,0.6893
848.0,0.6857
849.0,0.6662
850.0,0.6382
851.0,0.6764
852.0,0.6713
853.0,0.6457
854.0,0.5579
855.0,0.6123
856.0,0.6694
857.0,0.6839
858.0,0.6791
859.0,0.6794
860.0,0.6804
861.0,0.6768
862.0,0.6873
863.0,0.7035
864.0,0.6683
865.0,0.6624
866.0,0.5956
867.0,0.6216
868.0,0.6764
869.0,0.6623
870.0,0.6812
871.0,0.6719
872.0,0.6695
873.0,0.6682
874.0,0.6602
875.0,0.6468
876.0,0.6536
877.0,0.6602
878.0,0.6674
879.0,0.6571
880.0,0.6431
881.0,0.6337
882.0,0.6475
883.0,0.6493
884.0,0.6464
885.0,0.6513
886.0,0.6218
887.0,0.6276
888.0,0.6373
889.0,0.6436
890.0,0.6393
891.0,0.6377
892.0,0.6207
893.0,0.603
894.0,0.5852
895.0,0.5572
896.0,0.5268
897.0,0.4584
898.0,0.4968
899.0,0.385
900.0,0.5051
901.0,0.4033
902.0,0.4638
903.0,0.4714
904.0,0.5807
905.0,0.5626
906.0,0.5281
907.0,0.4377
908.0,0.4452
909.0,0.4781
910.0,0.4302
911.0,0.4541
912.0,0.473
913.0,0.4369
914.0,0.4319
915.0,0.4675
916.0,0.398
917.0,0.4969
918.0,0.4083
919.0,0.504
920.0,0.5054
921.0,0.5247
922.0,0.4744
923.0,0.5066
924.0,0.4865
925.0,0.4761
926.0,0.4813
927.0,0.5338
928.0,0.406
929.0,0.3745
930.0,0.3005
931.0,0.2836
932.0,0.2105
933.0,0.1745
934.0,0.1029
935.0,0.1757
936.0,0.1142
937.0,0.1164
938.0,0.1413
939.0,0.2748
940.0,0.3263
941.0,0.2522
942.0,0.2882
943.0,0.1942
944.0,0.2003
945.0,0.259
946.0,0.138
947.0,0.2617
948.0,0.1933
949.0,0.3442
950.0,0.1054
951.0,0.3378
952.0,0.1897
953.0,0.2396
954.0,0.2878
955.0,0.2417
956.0,0.2317
957.0,0.1908
958.0,0.3199
959.0,0.2605
960.0,0.2919
961.0,0.3227
962.0,0.306
963.0,0.3485
964.0,0.3207
965.0,0.3467
966.0,0.3478
967.0,0.3467
968.0,0.4502
969.0,0.4714
970.0,0.4349
971.0,0.4915
972.0,0.4713
973.0,0.4168
974.0,0.3966
975.0,0.4091
976.0,0.3918
977.0,0.4392
978.0,0.42
979.0,0.4379
980.0,0.413
981.0,0.4883
982.0,0.4692
983.0,0.4519
984.0,0.5006
985.0,0.4674
986.0,0.5079
987.0,0.4996
988.0,0.4987
989.0,0.5054
990.0,0.4956
991.0,0.5071
992.0,0.5098
993.0,0.5001
994.0,0.5095
995.0,0.5086
996.0,0.5066
997.0,0.5073
998.0,0.505
999.0,0.503
1000.0,0.4999
1001.0,0.5057
1002.0,0.4934
1003.0,0.4969
1004.0,0.4851
1005.0,0.4668
1006.0,0.4853
1007.0,0.4954
1008.0,0.493
1009.0,0.4907
1010.0,0.4888
1011.0,0.4929
1012.0,0.4889
1013.0,0.4916
1014.0,0.4881
1015.0,0.485
1016.0,0.4828
1017.0,0.4841
1018.0,0.4821
1019.0,0.4724
1020.0,0.4796
1021.0,0.4789
1022.0,0.4754
1023.0,0.4805
1024.0,0.4748
1025.0,0.4799
1026.0,0.478
1027.0,0.4769
1028.0,0.4759
1029.0,0.4704
1030.0,0.4734
1031.0,0.4716
1032.0,0.4701
1033.0,0.4631
1034.0,0.4631
1035.0,0.4645
1036.0,0.467
1037.0,0.4594
1038.0,0.4614
1039.0,0.4612
1040.0,0.4593
1041.0,0.4612
1042.0,0.458
1043.0,0.4566
1044.0,0.4582
1045.0,0.452
1046.0,0.4471
1047.0,0.4512
1048.0,0.4537
1049.0,0.4521
1050.0,0.4501
1051.0,0.4495
1052.0,0.4477
1053.0,0.4442
1054.0,0.4453
1055.0,0.4456
1056.0,0.4441
1057.0,0.4428
1058.0,0.432
1059.0,0.4326
1060.0,0.432
1061.0,0.4315
1062.0,0.4339
1063.0,0.4297
1064.0,0.4347
1065.0,0.4318
1066.0,0.4231
1067.0,0.4286
1068.0,0.4194
1069.0,0.4064
1070.0,0.4203
1071.0,0.4263
1072.0,0.4218
1073.0,0.4156
1074.0,0.4258
1075.0,0.4061
1076.0,0.4255
1077.0,0.4189
1078.0,0.4113
1079.0,0.4184
1080.0,0.4124
1081.0,0.4
1082.0,0.405
1083.0,0.4059
1084.0,0.3994
1085.0,0.4132
1086.0,0.3797
1087.0,0.3899
1088.0,0.4058
1089.0,0.3949
1090.0,0.3873
1091.0,0.4049
1092.0,0.4035
1093.0,0.347
1094.0,0.3698
1095.0,0.3608
1096.0,0.3469
1097.0,0.3941
1098.0,0.342
1099.0,0.356
1100.0,0.3331
1101.0,0.3366
1102.0,0.3228
1103.0,0.3206
1104.0,0.321
1105.0,0.3483
1106.0,0.2748
1107.0,0.3324
1108.0,0.2868
1109.0,0.2863
1110.0,0.3301
1111.0,0.2307
1112.0,0.2838
1113.0,0.1877
1114.0,0.209
1115.0,0.1735
1116.0,0.1429
1117.0,0.05742
1118.0,0.1538
1119.0,0.0802
1120.0,0.1011
1121.0,0.1317
1122.0,0.05881
1123.0,0.09121
1124.0,0.07704
1125.0,0.09957
1126.0,0.03804
1127.0,0.112
1128.0,0.07064
1129.0,0.07439
1130.0,0.05054
1131.0,0.2039
1132.0,0.1616
1133.0,0.1069
1134.0,0.03017
1135.0,0.01117
1136.0,0.09083
1137.0,0.2016
1138.0,0.1431
1139.0,0.2048
1140.0,0.1744
1141.0,0.1359
1142.0,0.1546
1143.0,0.216
1144.0,0.07979
1145.0,0.103
1146.0,0.1111
1147.0,0.04265
1148.0,0.187
1149.0,0.152
1150.0,0.08556
1151.0,0.142
1152.0,0.1717
1153.0,0.165
1154.0,0.1005
1155.0,0.2138
1156.0,0.1942
1157.0,0.2154
1158.0,0.213
1159.0,0.2275
1160.0,0.1971
1161.0,0.2378
1162.0,0.2393
1163.0,0.3146
1164.0,0.273
1165.0,0.2606
1166.0,0.2567
1167.0,0.2779
1168.0,0.2816
1169.0,0.2872
1170.0,0.3095
1171.0,0.3022
1172.0,0.3062
1173.0,0.3089
1174.0,0.2277
1175.0,0.3006
1176.0,0.3269
1177.0,0.3161
1178.0,0.2429
1179.0,0.3294
1180.0,0.298
1181.0,0.3071
1182.0,0.2179
1183.0,0.3015
1184.0,0.2846
1185.0,0.2763
1186.0,0.3217
1187.0,0.3083
1188.0,0.2222
1189.0,0.2876
1190.0,0.3144
1191.0,0.3017
1192.0,0.3184
1193.0,0.3063
1194.0,0.3149
1195.0,0.3
1196.0,0.2904
1197.0,0.3138
1198.0,0.2888
1199.0,0.2508
1200.0,0.3026
1201.0,0.2936
1202.0,0.2908
1203.0,0.2885
1204.0,0.2551
1205.0,0.2961
1206.0,0.3242
1207.0,0.2906
1208.0,0.2845
1209.0,0.29
1210.0,0.3009
1211.0,0.2886
1212.0,0.2873
1213.0,0.3147
1214.0,0.2931
1215.0,0.2881
1216.0,0.3135
1217.0,0.3063
1218.0,0.3111
1219.0,0.3077
1220.0,0.3113
1221.0,0.3138
1222.0,0.3063
1223.0,0.3038
1224.0,0.3027
1225.0,0.3119
1226.0,0.3133
1227.0,0.2916
1228.0,0.3144
1229.0,0.3134
1230.0,0.3085
1231.0,0.3156
1232.0,0.3138
1233.0,0.3051
1234.0,0.3149
1235.0,0.3132
1236.0,0.3153
1237.0,0.3117
1238.0,0.3142
1239.0,0.3102
1240.0,0.3113
1241.0,0.3103
1242.0,0.3092
1243.0,0.3066
1244.0,0.309
1245.0,0.3102
1246.0,0.3084
1247.0,0.3073
1248.0,0.3074
1249.0,0.3081
1250.0,0.3064
1251.0,0.3028
1252.0,0.3024
1253.0,0.3007
1254.0,0.2982
1255.0,0.3023
1256.0,0.2951
1257.0,0.2938
1258.0,0.2982
1259.0,0.2895
1260.0,0.2907
1261.0,0.277
1262.0,0.27
1263.0,0.2706
1264.0,0.253
1265.0,0.2688
1266.0,0.2606
1267.0,0.2638
1268.0,0.2523
1269.0,0.1708
1270.0,0.2634
1271.0,0.2757
1272.0,0.2763
1273.0,0.2737
1274.0,0.2742
1275.0,0.2777
1276.0,0.2799
1277.0,0.2811
1278.0,0.2855
1279.0,0.283
1280.0,0.2793
1281.0,0.2661
1282.0,0.2556
1283.0,0.2754
1284.0,0.2822
1285.0,0.2839
1286.0,0.2873
1287.0,0.2837
1288.0,0.2834
1289.0,0.276
1290.0,0.2808
1291.0,0.2844
1292.0,0.2702
1293.0,0.2796
1294.0,0.2778
1295.0,0.2772
1296.0,0.2666
1297.0,0.2538
1298.0,0.27
1299.0,0.2797
1300.0,0.2421
1301.0,0.2484
1302.0,0.2691
1303.0,0.2383
1304.0,0.2083
1305.0,0.2639
1306.0,0.2643
1307.0,0.211
1308.0,0.2379
1309.0,0.2627
1310.0,0.2072
1311.0,0.2292
1312.0,0.2238
1313.0,0.2203
1314.0,0.1989
1315.0,0.1975
1316.0,0.2264
1317.0,0.215
1318.0,0.2316
1319.0,0.187
1320.0,0.1799
1321.0,0.2075
1322.0,0.2105
1323.0,0.1632
1324.0,0.1834
1325.0,0.2234
1326.0,0.1949
1327.0,0.1867
1328.0,0.1625
1329.0,0.1262
1330.0,0.1621
1331.0,0.1029
1332.0,0.1045
1333.0,0.1442
1334.0,0.12
1335.0,0.1626
1336.0,0.1311
1337.0,0.1174
1338.0,0.1269
1339.0,0.1257
1340.0,0.1209
1341.0,0.121
1342.0,0.1269
1343.0,0.0921
1344.0,0.05494
1345.0,0.0786
1346.0,0.04323
1347.0,0.04467
1348.0,0.003757
1349.0,0.01249
1350.0,0.01229
1351.0,0.003764
1352.0,0.001291
1353.0,8.741e-05
1354.0,0.0002528
1355.0,3.581e-06
1356.0,4.373e-05
1357.0,6.599e-05
1358.0,4.147e-06
1359.0,7.9e-07
1360.0,2.199e-06
1361.0,6.011e-09
1362.0,2.463e-11
1363.0,3.302e-06
1364.0,1.428e-06
1365.0,1.385e-11
1366.0,1.29e-05
1367.0,5.013e-06
1368.0,2.748e-13
1369.0,5.497e-07
1370.0,3.223e-07
1371.0,2.3e-08
1372.0,2.768e-06
1373.0,4.177e-05
1374.0,0.0001598
1375.0,0.0002894
1376.0,0.0002254
1377.0,0.0001082
1378.0,0.0009573
1379.0,4.601e-05
1380.0,7.41e-05
1381.0,2.214e-06
1382.0,2.62e-06
1383.0,4.705e-08
1384.0,6.643e-07
1385.0,2.051e-06
1386.0,2.625e-06
1387.0,0.0001839
1388.0,3.78e-06
1389.0,0.0005085
1390.0,0.0004368
1391.0,0.000306
1392.0,2.16e-05
1393.0,0.0001026
1394.0,7.157e-05
1395.0,6.757e-07
1396.0,7.705e-09
1397.0,4.429e-05
1398.0,0.001093
1399.0,0.0006934
1400.0,4.182e-09
1401.0,1.273e-08
1402.0,0.001501
1403.0,0.001972
1404.0,0.0006141
1405.0,3.823e-07
1406.0,0.001722
1407.0,0.0001468
1408.0,0.001392
1409.0,0.0005391
1410.0,0.0003989
1411.0,0.001721
1412.0,0.00217
1413.0,0.01812
1414.0,0.0003099
1415.0,0.0001596
1416.0,0.02673
1417.0,0.009132
1418.0,0.01048
1419.0,0.001679
1420.0,0.006455
1421.0,0.007042
1422.0,0.03458
1423.0,0.006989
1424.0,0.01285
1425.0,0.01926
1426.0,0.02092
1427.0,0.03631
1428.0,0.003596
1429.0,0.0281
1430.0,0.04557
1431.0,0.04948
1432.0,0.002861
1433.0,0.03229
1434.0,0.01683
1435.0,0.01822
1436.0,0.03295
1437.0,0.02526
1438.0,0.01129
1439.0,0.04384
1440.0,0.03295
1441.0,0.02616
1442.0,0.0288
1443.0,0.03458
1444.0,0.04721
1445.0,0.03821
1446.0,0.01758
1447.0,0.02765
1448.0,0.08453
1449.0,0.07463
1450.0,0.02045
1451.0,0.008528
1452.0,0.0461
1453.0,0.05982
1454.0,0.09846
1455.0,0.048
1456.0,0.06516
1457.0,0.08492
1458.0,0.09773
