interpolation:linear
wavelength,value
280.0,8.914e-21
280.5,2.69e-19
281.0,1.402e-18
281.5,4.755e-19
282.0,1.485e-18
282.5,3.926e-18
283.0,1.266e-17
283.5,2.068e-17
284.0,3.275e-16
284.5,9.332e-16
285.0,1.836e-15
285.5,9.674e-15
286.0,3.942e-14
286.5,1.776e-13
287.0,5.07e-13
287.5,1.926e-12
288.0,5.074e-12
288.5,1.815e-11
289.0,5.481e-11
289.5,1.836e-10
290.0,5.467e-10
290.5,1.175e-09
291.0,2.669e-09
291.5,8.366e-09
292.0,2.031e-08
292.5,3.201e-08
293.0,7.99e-08
293.5,2.413e-07
294.0,4.433e-07
294.5,5.903e-07
295.0,1.176e-06
295.5,3.215e-06
296.0,6.374e-06
296.5,9.171e-06
297.0,1.271e-05
297.5,3.535e-05
298.0,5.751e-05
298.5,5.935e-05
299.0,0.0001342
299.5,0.0002331
300.0,0.0002635
300.5,0.0003931
301.0,0.0007493
301.5,0.001263
302.0,0.001117
302.5,0.002162
303.0,0.003832
303.5,0.004782
304.0,0.004462
304.5,0.006531
305.0,0.00963
305.5,0.01083
306.0,0.01041
306.5,0.01282
307.0,0.01852
307.5,0.02401
308.0,0.02526
308.5,0.02945
309.0,0.02876
309.5,0.03232
310.0,0.0322
310.5,0.05194
311.0,0.06475
311.5,0.06232
312.0,0.06136
312.5,0.07389
313.0,0.07971
313.5,0.07781
314.0,0.09607
314.5,0.08375
315.0,0.1097
315.5,0.09257
316.0,0.07973
316.5,0.1131
317.0,0.1405
317.5,0.1467
318.0,0.1135
318.5,0.1387
319.0,0.1633
319.5,0.1349
320.0,0.1633
320.5,0.201
321.0,0.1763
321.5,0.1688
322.0,0.1829
322.5,0.1589
323.0,0.1566
323.5,0.1906
324.0,0.2221
324.5,0.2265
325.0,0.1968
325.5,0.2509
326.0,0.306
326.5,0.3047
327.0,0.3044
327.5,0.2948
328.0,0.2646
328.5,0.2755
329.0,0.3273
329.5,0.3707
330.0,0.3747
330.5,0.3017
331.0,0.308
331.5,0.3117
332.0,0.3346
332.5,0.3301
333.0,0.3297
333.5,0.2998
334.0,0.3074
334.5,0.3529
335.0,0.3306
335.5,0.3861
336.0,0.2672
336.5,0.3134
337.0,0.2577
337.5,0.3209
338.0,0.3119
338.5,0.36
339.0,0.3563
339.5,0.3428
340.0,0.4029
340.5,0.3631
341.0,0.3541
341.5,0.3251
342.0,0.3886
342.5,0.3636
343.0,0.3999
343.5,0.3766
344.0,0.2784
344.5,0.2812
345.0,0.3721
345.5,0.3799
346.0,0.3229
346.5,0.3656
347.0,0.3926
347.5,0.3175
348.0,0.3619
348.5,0.3618
349.0,0.3356
349.5,0.3324
350.0,0.4111
350.5,0.4337
351.0,0.3875
351.5,0.3767
352.0,0.4046
352.5,0.3157
353.0,0.3977
353.5,0.4253
354.0,0.4416
354.5,0.4479
355.0,0.4464
355.5,0.4033
356.0,0.422
356.5,0.3604
357.0,0.2978
357.5,0.3646
358.0,0.289
358.5,0.247
359.0,0.3455
359.5,0.4404
360.0,0.4669
360.5,0.3732
361.0,0.3403
361.5,0.3918
362.0,0.3389
362.5,0.4691
363.0,0.4214
363.5,0.3882
364.0,0.4748
364.5,0.4059
365.0,0.4134
365.5,0.519
366.0,0.5499
366.5,0.5168
367.0,0.5033
367.5,0.5224
368.0,0.4572
368.5,0.4614
369.0,0.4984
369.5,0.5313
370.0,0.5664
370.5,0.4397
371.0,0.4699
371.5,0.5879
372.0,0.3903
372.5,0.468
373.0,0.4761
373.5,0.3099
374.0,0.4503
374.5,0.373
375.0,0.3626
375.5,0.5414
376.0,0.4489
376.5,0.4652
377.0,0.4926
377.5,0.5764
378.0,0.6249
378.5,0.5908
379.0,0.4876
379.5,0.4454
380.0,0.4632
380.5,0.5611
381.0,0.5624
381.5,0.4459
382.0,0.396
382.5,0.3377
383.0,0.3126
383.5,0.3012
384.0,0.3323
384.5,0.4888
385.0,0.4848
385.5,0.4516
386.0,0.3868
386.5,0.5082
387.0,0.4223
387.5,0.4744
388.0,0.4381
388.5,0.4331
389.0,0.4676
389.5,0.5664
390.0,0.5685
390.5,0.5233
391.0,0.616
391.5,0.6284
392.0,0.5294
392.5,0.474
393.0,0.2638
393.5,0.1918
394.0,0.3903
394.5,0.4963
395.0,0.6057
395.5,0.6153
396.0,0.5336
396.5,0.312
397.0,0.2341
397.5,0.4762
398.0,0.667
398.5,0.6895
399.0,0.7467
399.5,0.7444
400.0,0.773
401.0,0.7845
402.0,0.8279
403.0,0.7866
404.0,0.7747
405.0,0.7747
406.0,0.7623
407.0,0.7501
408.0,0.7796
409.0,0.8345
410.0,0.7293
411.0,0.7901
412.0,0.8488
413.0,0.8279
414.0,0.8381
415.0,0.8405
416.0,0.8553
417.0,0.8344
418.0,0.8191
419.0,0.83
420.0,0.8265
421.0,0.8647
422.0,0.822
423.0,0.8031
424.0,0.8495
425.0,0.8481
426.0,0.8262
427.0,0.8108
428.0,0.7899
429.0,0.7483
430.0,0.655
431.0,0.6492
432.0,0.8383
433.0,0.843
434.0,0.7829
435.0,0.8177
436.0,0.9214
437.0,0.9091
438.0,0.8279
439.0,0.8564
440.0,0.8837
441.0,0.9158
442.0,0.9822
443.0,0.9568
444.0,0.9776
445.0,0.9565
446.0,0.9129
447.0,0.9869
448.0,1.002
449.0,1.006
450.0,1.035
451.0,1.073
452.0,1.034
453.0,0.9724
454.0,1.015
455.0,1.021
456.0,1.046
457.0,1.063
458.0,1.027
459.0,1.022
460.0,1.025
461.0,1.048
462.0,1.056
463.0,1.049
464.0,1.032
465.0,1.019
466.0,1.028
467.0,1.01
468.0,1.022
469.0,1.027
470.0,0.9942
471.0,0.993
472.0,1.046
473.0,1.033
474.0,1.034
475.0,1.043
476.0,1.012
477.0,1.015
478.0,1.043
479.0,1.037
480.0,1.039
481.0,1.058
482.0,1.064
483.0,1.051
484.0,1.029
485.0,0.9804
486.0,0.857
487.0,0.8981
488.0,0.9854
489.0,0.9885
490.0,1.04
491.0,1.022
492.0,0.9651
493.0,0.9967
494.0,1.007
495.0,1.015
496.0,1.021
497.0,1.037
498.0,0.9888
499.0,1.002
500.0,0.9724
501.0,0.9546
502.0,0.9413
503.0,0.9798
504.0,0.9552
505.0,0.9892
506.0,1.021
507.0,0.9717
508.0,0.9413
509.0,0.9676
510.0,0.9624
511.0,0.9882
512.0,0.9989
513.0,0.9454
514.0,0.9389
515.0,0.9295
516.0,0.9273
517.0,0.8239
518.0,0.8662
519.0,0.9086
520.0,0.9416
521.0,0.9506
522.0,0.9515
523.0,0.9344
524.0,0.9679
525.0,0.9793
526.0,0.9356
527.0,0.8817
528.0,0.9325
529.0,0.983
530.0,0.9689
531.0,0.9833
532.0,0.9495
533.0,0.9217
534.0,0.9489
535.0,0.9696
536.0,0.9785
537.0,0.9398
538.0,0.9564
539.0,0.9484
540.0,0.9093
541.0,0.9154
542.0,0.9441
543.0,0.9341
544.0,0.9504
545.0,0.9474
546.0,0.9517
547.0,0.9512
548.0,0.9398
549.0,0.9426
550.0,0.9538
551.0,0.9422
552.0,0.9488
553.0,0.9318
554.0,0.9541
555.0,0.956
556.0,0.9436
557.0,0.9143
558.0,0.9075
559.0,0.8906
560.0,0.9017
561.0,0.9134
562.0,0.9069
563.0,0.9317
564.0,0.9064
565.0,0.8986
566.0,0.8855
567.0,0.9023
568.0,0.8944
569.0,0.8734
570.0,0.8731
571.0,0.8678
572.0,0.8888
573.0,0.8983
574.0,0.8955
575.0,0.8788
576.0,0.8708
577.0,0.8802
578.0,0.867
579.0,0.8703
580.0,0.8867
581.0,0.8911
582.0,0.9078
583.0,0.91
584.0,0.9178
585.0,0.8954
586.0,0.877
587.0,0.8962
588.0,0.8748
589.0,0.7756
590.0,0.8111
591.0,0.8579
592.0,0.8473
593.0,0.8595
594.0,0.8537
595.0,0.8328
596.0,0.8652
597.0,0.8559
598.0,0.8536
599.0,0.8543
600.0,0.8554
601.0,0.8483
602.0,0.8426
603.0,0.8565
604.0,0.8706
605.0,0.8661
606.0,0.8625
607.0,0.871
608.0,0.8613
609.0,0.8627
610.0,0.8565
611.0,0.861
612.0,0.8584
613.0,0.8476
614.0,0.836
615.0,0.8541
616.0,0.826
617.0,0.8243
618.0,0.856
619.0,0.8473
620.0,0.8527
621.0,0.8535
622.0,0.8436
623.0,0.8308
624.0,0.8165
625.0,0.8147
626.0,0.8267
627.0,0.8361
628.0,0.782
629.0,0.8167
630.0,0.7979
631.0,0.8155
632.0,0.8057
633.0,0.83
634.0,0.8218
635.0,0.8346
636.0,0.8235
637.0,0.8369
638.0,0.8449
639.0,0.8353
640.0,0.8272
641.0,0.8266
642.0,0.8228
643.0,0.8339
644.0,0.8311
645.0,0.8325
646.0,0.8132
647.0,0.8039
648.0,0.8047
649.0,0.7891
650.0,0.7925
651.0,0.8268
652.0,0.7928
653.0,0.8158
654.0,0.8067
655.0,0.7769
656.0,0.6884
657.0,0.7069
658.0,0.7921
659.0,0.7977
660.0,0.801
661.0,0.8066
662.0,0.8083
663.0,0.7923
664.0,0.8016
665.0,0.8022
666.0,0.8027
667.0,0.8019
668.0,0.8023
669.0,0.8146
670.0,0.8111
671.0,0.8109
672.0,0.8039
673.0,0.816
674.0,0.813
675.0,0.8056
676.0,0.8111
677.0,0.803
678.0,0.8053
679.0,0.7923
680.0,0.7986
681.0,0.7933
682.0,0.7923
683.0,0.7908
684.0,0.7868
685.0,0.7936
686.0,0.7889
687.0,0.5285
688.0,0.6172
689.0,0.6193
690.0,0.6488
691.0,0.682
692.0,0.7062
693.0,0.7004
694.0,0.6946
695.0,0.7228
696.0,0.7237
697.0,0.7673
698.0,0.7554
699.0,0.7378
700.0,0.7289
701.0,0.7217
702.0,0.7265
703.0,0.7278
704.0,0.7508
705.0,0.752
706.0,0.7512
707.0,0.7517
708.0,0.7534
709.0,0.7543
710.0,0.7543
711.0,0.7532
712.0,0.7509
713.0,0.7434
714.0,0.7462
715.0,0.7228
716.0,0.7233
717.0,0.6291
718.0,0.578
719.0,0.5297
720.0,0.555
721.0,0.6116
722.0,0.6985
723.0,0.6509
724.0,0.5871
725.0,0.5779
726.0,0.6049
727.0,0.6131
728.0,0.5765
729.0,0.5975
730.0,0.6323
731.0,0.6051
732.0,0.6466
733.0,0.6838
734.0,0.6999
735.0,0.6855
736.0,0.6846
737.0,0.6874
738.0,0.6975
739.0,0.6838
740.0,0.7015
741.0,0.6944
742.0,0.695
743.0,0.7127
744.0,0.7106
745.0,0.7107
746.0,0.7139
747.0,0.7155
748.0,0.714
749.0,0.7059
750.0,0.7054
751.0,0.6983
752.0,0.7013
753.0,0.7048
754.0,0.7064
755.0,0.7024
756.0,0.7021
757.0,0.7031
758.0,0.6944
759.0,0.6805
760.0,0.1166
761.0,0.06173
762.0,0.3516
763.0,0.1773
764.0,0.2651
765.0,0.3517
766.0,0.4303
767.0,0.5416
768.0,0.6239
769.0,0.6367
770.0,0.6581
771.0,0.6633
772.0,0.6646
773.0,0.6693
774.0,0.666
775.0,0.661
776.0,0.669
777.0,0.6602
778.0,0.6562
779.0,0.6567
780.0,0.653
781.0,0.6537
782.0,0.6578
783.0,0.6463
784.0,0.6494
785.0,0.6446
786.0,0.6518
787.0,0.6405
788.0,0.6326
789.0,0.6324
790.0,0.6158
791.0,0.6209
792.0,0.6163
793.0,0.6063
794.0,0.6165
795.0,0.627
796.0,0.608
797.0,0.6087
798.0,0.6262
799.0,0.6223
800.0,0.6116
801.0,0.6097
802.0,0.608
803.0,0.6034
804.0,0.6042
805.0,0.6022
806.0,0.619
807.0,0.6115
808.0,0.6121
809.0,0.6007
810.0,0.5958
811.0,0.5967
812.0,0.5798
813.0,0.5678
814.0,0.5002
815.0,0.4971
816.0,0.4627
817.0,0.4711
818.0,0.4536
819.0,0.5067
820.0,0.4773
821.0,0.5573
822.0,0.5415
823.0,0.3692
824.0,0.5259
825.0,0.5476
826.0,0.5271
827.0,0.556
828.0,0.4719
829.0,0.5238
830.0,0.517
831.0,0.5188
832.0,0.503
833.0,0.5349
834.0,0.5161
835.0,0.5667
836.0,0.5426
837.0,0.5682
838.0,0.5506
839.0,0.5596
840.0,0.5719
841.0,0.5638
842.0,0.565
843.0,0.5647
844.0,0.5568
845.0,0.5756
846.0,0.5731
847.0,0.5624
848.0,0.5589
849.0,0.543
850.0,0.5203
851.0,0.5508
852.0,0.547
853.0,0.5265
854.0,0.4546
855.0,0.4994
856.0,0.5458
857.0,0.558
858.0,0.5538
859.0,0.5543
860.0,0.5553
861.0,0.5523
862.0,0.561
863.0,0.5742
864.0,0.5455
865.0,0.5407
866.0,0.4862
867.0,0.5074
868.0,0.5521
869.0,0.5407
870.0,0.5561
871.0,0.5485
872.0,0.5466
873.0,0.5455
874.0,0.539
875.0,0.5281
876.0,0.5336
877.0,0.539
878.0,0.5448
879.0,0.5365
880.0,0.525
881.0,0.5171
882.0,0.5282
883.0,0.5299
884.0,0.5275
885.0,0.5315
886.0,0.5065
887.0,0.5119
888.0,0.5194
889.0,0.5254
890.0,0.5209
891.0,0.52
892.0,0.5049
893.0,0.489
894.0,0.4716
895.0,0.4453
896.0,0.4194
897.0,0.3599
898.0,0.3929
899.0,0.2984
900.0,0.4026
901.0,0.3128
902.0,0.3677
903.0,0.3711
904.0,0.468
905.0,0.4518
906.0,0.4227
907.0,0.3428
908.0,0.3497
909.0,0.3791
910.0,0.3347
911.0,0.3572
912.0,0.3735
913.0,0.3397
914.0,0.3369
915.0,0.3653
916.0,0.309
917.0,0.3928
918.0,0.3168
919.0,0.4001
920.0,0.4046
921.0,0.4208
922.0,0.3757
923.0,0.4065
924.0,0.385
925.0,0.3767
926.0,0.3807
927.0,0.4267
928.0,0.3115
929.0,0.2839
930.0,0.2223
931.0,0.2107
932.0,0.1508
933.0,0.1221
934.0,0.06587
935.0,0.1254
936.0,0.07758
937.0,0.07855
938.0,0.09688
939.0,0.2042
940.0,0.2463
941.0,0.1849
942.0,0.2147
943.0,0.1405
944.0,0.1486
945.0,0.1909
946.0,0.09607
947.0,0.1915
948.0,0.1405
949.0,0.2574
950.0,0.06983
951.0,0.2536
952.0,0.1348
953.0,0.1751
954.0,0.2157
955.0,0.1772
956.0,0.1727
957.0,0.1349
958.0,0.2462
959.0,0.1943
960.0,0.2178
961.0,0.2455
962.0,0.2321
963.0,0.2684
964.0,0.2456
965.0,0.2675
966.0,0.2673
967.0,0.2661
968.0,0.3598
969.0,0.3755
970.0,0.3445
971.0,0.3957
972.0,0.3782
973.0,0.328
974.0,0.3111
975.0,0.3234
976.0,0.3064
977.0,0.3501
978.0,0.332
979.0,0.3482
980.0,0.3271
981.0,0.3934
982.0,0.3757
983.0,0.3604
984.0,0.4059
985.0,0.3743
986.0,0.4134
987.0,0.4049
988.0,0.4042
989.0,0.4123
990.0,0.4018
991.0,0.4135
992.0,0.416
993.0,0.4063
994.0,0.4159
995.0,0.4154
996.0,0.4135
997.0,0.4141
998.0,0.4122
999.0,0.4107
1000.0,0.4077
1001.0,0.4129
1002.0,0.4011
1003.0,0.4056
1004.0,0.3955
1005.0,0.3812
1006.0,0.396
1007.0,0.4044
1008.0,0.4022
1009.0,0.4
1010.0,0.3982
1011.0,0.4024
1012.0,0.3988
1013.0,0.4015
1014.0,0.3986
1015.0,0.396
1016.0,0.3942
1017.0,0.3952
1018.0,0.3937
1019.0,0.3852
1020.0,0.3916
1021.0,0.3911
1022.0,0.388
1023.0,0.3921
1024.0,0.3869
1025.0,0.3919
1026.0,0.3902
1027.0,0.3893
1028.0,0.3885
1029.0,0.3839
1030.0,0.3866
1031.0,0.385
1032.0,0.3839
1033.0,0.3781
1034.0,0.3781
1035.0,0.3793
1036.0,0.3813
1037.0,0.3751
1038.0,0.3767
1039.0,0.3765
1040.0,0.375
1041.0,0.3765
1042.0,0.3738
1043.0,0.3726
1044.0,0.3739
1045.0,0.3689
1046.0,0.3648
1047.0,0.368
1048.0,0.37
1049.0,0.3687
1050.0,0.367
1051.0,0.3665
1052.0,0.3649
1053.0,0.362
1054.0,0.3628
1055.0,0.363
1056.0,0.3617
1057.0,0.3605
1058.0,0.3516
1059.0,0.352
1060.0,0.3514
1061.0,0.351
1062.0,0.3528
1063.0,0.3493
1064.0,0.3535
1065.0,0.3509
1066.0,0.344
1067.0,0.3484
1068.0,0.3408
1069.0,0.3303
1070.0,0.3414
1071.0,0.3469
1072.0,0.3428
1073.0,0.3379
1074.0,0.3467
1075.0,0.3289
1076.0,0.3464
1077.0,0.34
1078.0,0.3335
1079.0,0.341
1080.0,0.3348
1081.0,0.3238
1082.0,0.3294
1083.0,0.3305
1084.0,0.3229
1085.0,0.3356
1086.0,0.3056
1087.0,0.3159
1088.0,0.3301
1089.0,0.3195
1090.0,0.3122
1091.0,0.3289
1092.0,0.3281
1093.0,0.2771
1094.0,0.3001
1095.0,0.2888
1096.0,0.2762
1097.0,0.3205
1098.0,0.2717
1099.0,0.2836
1100.0,0.2632
1101.0,0.2666
1102.0,0.2543
1103.0,0.2516
1104.0,0.252
1105.0,0.277
1106.0,0.21
1107.0,0.2627
1108.0,0.2215
1109.0,0.2222
1110.0,0.2603
1111.0,0.175
1112.0,0.2206
1113.0,0.1388
1114.0,0.1552
1115.0,0.1286
1116.0,0.1017
1117.0,0.03624
1118.0,0.111
1119.0,0.05415
1120.0,0.0681
1121.0,0.09096
1122.0,0.03747
1123.0,0.06158
1124.0,0.05197
1125.0,0.06802
1126.0,0.02288
1127.0,0.07681
1128.0,0.04507
1129.0,0.04795
1130.0,0.03121
1131.0,0.1478
1132.0,0.1155
1133.0,0.07206
1134.0,0.01776
1135.0,0.006693
1136.0,0.0597
1137.0,0.1448
1138.0,0.1018
1139.0,0.154
1140.0,0.1278
1141.0,0.09673
1142.0,0.1117
1143.0,0.1596
1144.0,0.05466
1145.0,0.06953
1146.0,0.07498
1147.0,0.02553
1148.0,0.1381
1149.0,0.1096
1150.0,0.0589
1151.0,0.101
1152.0,0.1251
1153.0,0.1225
1154.0,0.06727
1155.0,0.1606
1156.0,0.1442
1157.0,0.1625
1158.0,0.1607
1159.0,0.1738
1160.0,0.148
1161.0,0.1834
1162.0,0.1843
1163.0,0.2503
1164.0,0.2142
1165.0,0.2016
1166.0,0.2005
1167.0,0.2187
1168.0,0.221
1169.0,0.2264
1170.0,0.2464
1171.0,0.2402
1172.0,0.2447
1173.0,0.2459
1174.0,0.1748
1175.0,0.2403
1176.0,0.2645
1177.0,0.2537
1178.0,0.1901
1179.0,0.2666
1180.0,0.2377
1181.0,0.2453
1182.0,0.1688
1183.0,0.2416
1184.0,0.2263
1185.0,0.2182
1186.0,0.2591
1187.0,0.2467
1188.0,0.1716
1189.0,0.2298
1190.0,0.2532
1191.0,0.2403
1192.0,0.2568
1193.0,0.246
1194.0,0.2536
1195.0,0.2398
1196.0,0.2308
1197.0,0.2538
1198.0,0.2321
1199.0,0.1973
1200.0,0.2429
1201.0,0.2342
1202.0,0.2329
1203.0,0.2309
1204.0,0.2019
1205.0,0.2384
1206.0,0.2634
1207.0,0.2323
1208.0,0.2287
1209.0,0.2334
1210.0,0.2432
1211.0,0.2315
1212.0,0.2287
1213.0,0.2547
1214.0,0.2342
1215.0,0.2298
1216.0,0.2539
1217.0,0.2472
1218.0,0.2518
1219.0,0.2487
1220.0,0.2521
1221.0,0.2546
1222.0,0.248
1223.0,0.2457
1224.0,0.2441
1225.0,0.253
1226.0,0.2547
1227.0,0.2349
1228.0,0.2559
1229.0,0.2547
1230.0,0.2504
1231.0,0.2575
1232.0,0.2559
1233.0,0.2471
1234.0,0.2573
1235.0,0.2556
1236.0,0.2575
1237.0,0.2539
1238.0,0.2566
1239.0,0.2533
1240.0,0.2543
1241.0,0.2531
1242.0,0.2525
1243.0,0.2505
1244.0,0.2523
1245.0,0.2533
1246.0,0.2519
1247.0,0.2509
1248.0,0.2507
1249.0,0.2515
1250.0,0.25
1251.0,0.2468
1252.0,0.2468
1253.0,0.2448
1254.0,0.2424
1255.0,0.2466
1256.0,0.2396
1257.0,0.2383
1258.0,0.2428
1259.0,0.234
1260.0,0.2352
1261.0,0.222
1262.0,0.2153
1263.0,0.2157
1264.0,0.1991
1265.0,0.2143
1266.0,0.2062
1267.0,0.2099
1268.0,0.199
1269.0,0.1233
1270.0,0.2091
1271.0,0.2212
1272.0,0.222
1273.0,0.2196
1274.0,0.2203
1275.0,0.2235
1276.0,0.2257
1277.0,0.2272
1278.0,0.2316
1279.0,0.2295
1280.0,0.2266
1281.0,0.2162
1282.0,0.2083
1283.0,0.2243
1284.0,0.2297
1285.0,0.2312
1286.0,0.2343
1287.0,0.2307
1288.0,0.2307
1289.0,0.2234
1290.0,0.2286
1291.0,0.2318
1292.0,0.2178
1293.0,0.2273
1294.0,0.2257
1295.0,0.2246
1296.0,0.2144
1297.0,0.2028
1298.0,0.2184
1299.0,0.2276
1300.0,0.1926
1301.0,0.1985
1302.0,0.2176
1303.0,0.1901
1304.0,0.162
1305.0,0.2132
1306.0,0.2132
1307.0,0.1656
1308.0,0.1904
1309.0,0.2115
1310.0,0.1624
1311.0,0.1825
1312.0,0.1775
1313.0,0.1741
1314.0,0.1558
1315.0,0.1537
1316.0,0.1796
1317.0,0.1701
1318.0,0.1849
1319.0,0.1443
1320.0,0.1399
1321.0,0.163
1322.0,0.1646
1323.0,0.1236
1324.0,0.1416
1325.0,0.177
1326.0,0.1518
1327.0,0.1447
1328.0,0.1247
1329.0,0.09334
1330.0,0.1217
1331.0,0.073
1332.0,0.07554
1333.0,0.1053
1334.0,0.08937
1335.0,0.1231
1336.0,0.09715
1337.0,0.08577
1338.0,0.09282
1339.0,0.09248
1340.0,0.09008
1341.0,0.08765
1342.0,0.0921
1343.0,0.06169
1344.0,0.03698
1345.0,0.05338
1346.0,0.02607
1347.0,0.02643
1348.0,0.001656
1349.0,0.006012
1350.0,0.00629
1351.0,0.001483
1352.0,0.0003879
1353.0,1.916e-05
1354.0,6.75e-05
1355.0,5.093e-07
1356.0,9.342e-06
1357.0,1.425e-05
1358.0,6.048e-07
1359.0,7.258e-08
1360.0,2.72e-07
1361.0,2.737e-10
1362.0,7.172e-13
1363.0,3.63e-07
1364.0,1.5e-07
1365.0,2.38e-13
1366.0,1.609e-06
1367.0,6.65e-07
1368.0,1.649e-15
1369.0,5.593e-08
1370.0,2.703e-08
1371.0,1.497e-09
1372.0,3.661e-07
1373.0,7.659e-06
1374.0,3.648e-05
1375.0,6.626e-05
1376.0,6.082e-05
1377.0,2.772e-05
1378.0,0.0002746
1379.0,1.164e-05
1380.0,1.653e-05
1381.0,4.258e-07
1382.0,3.283e-07
1383.0,4.828e-09
1384.0,6.274e-08
1385.0,3.181e-07
1386.0,2.884e-07
1387.0,3.733e-05
1388.0,7.365e-07
1389.0,0.0001302
1390.0,0.000112
1391.0,7.433e-05
1392.0,4.796e-06
1393.0,2.581e-05
1394.0,1.283e-05
1395.0,9.179e-08
1396.0,4.003e-10
1397.0,1.018e-05
1398.0,0.0003077
1399.0,0.0001953
1400.0,1.682e-10
1401.0,7.279e-10
1402.0,0.0005641
1403.0,0.0007042
1404.0,0.0002139
1405.0,4.39e-08
1406.0,0.0005502
1407.0,4.903e-05
1408.0,0.0004511
1409.0,0.000148
1410.0,0.0001203
1411.0,0.0006202
1412.0,0.0008465
1413.0,0.009068
1414.0,9.524e-05
1415.0,4.521e-05
1416.0,0.01536
1417.0,0.004473
1418.0,0.005064
1419.0,0.0007783
1420.0,0.003092
1421.0,0.003347
1422.0,0.02009
1423.0,0.003845
1424.0,0.007258
1425.0,0.0106
1426.0,0.01225
1427.0,0.02303
1428.0,0.001551
1429.0,0.01697
1430.0,0.02959
1431.0,0.03268
1432.0,0.001217
1433.0,0.02054
1434.0,0.01032
1435.0,0.009895
1436.0,0.01976
1437.0,0.01515
1438.0,0.006214
1439.0,0.02716
1440.0,0.02033
1441.0,0.01514
1442.0,0.01683
