interpolation:linear
wavelength,value
280.0,2.6660000000000002e-21
280.5,8.379000000000001e-20
281.0,4.425e-19
281.5,3.485e-19
282.0,1.019e-18
282.5,2.687e-18
283.0,8.712e-18
283.5,1.428e-17
284.0,2.334e-16
284.5,6.745e-16
285.0,1.521e-15
285.5,7.36e-15
286.0,2.941e-14
286.5,1.296e-13
287.0,3.665e-13
287.5,1.386e-12
288.0,3.723e-12
288.5,1.232e-11
289.0,3.484e-11
289.5,1.1e-10
290.0,3.138e-10
290.5,6.517e-10
291.0,1.423e-09
291.5,4.153e-09
292.0,8.874e-09
292.5,1.332e-08
293.0,3.107e-08
293.5,8.477e-08
294.0,1.438e-07
294.5,1.86e-07
295.0,3.411e-07
295.5,8.828e-07
296.0,1.769e-06
296.5,2.58e-06
297.0,3.627e-06
297.5,1.036e-05
298.0,1.733e-05
298.5,1.831e-05
299.0,4.25e-05
299.5,7.767e-05
300.0,9.063e-05
300.5,0.0001401
301.0,0.0002854
301.5,0.0005175
302.0,0.0004792
302.5,0.0009479
303.0,0.00173
303.5,0.002202
304.0,0.002084
304.5,0.003168
305.0,0.004921
305.5,0.00572
306.0,0.005568
306.5,0.006997
307.0,0.01058
307.5,0.01431
308.0,0.01516
308.5,0.01806
309.0,0.01783
309.5,0.02058
310.0,0.02077
310.5,0.03371
311.0,0.04246
311.5,0.04105
312.0,0.04134
312.5,0.05054
313.0,0.05495
313.5,0.05326
314.0,0.06696
314.5,0.05978
315.0,0.07866
315.5,0.06561
316.0,0.05762
316.5,0.08311
317.0,0.1032
317.5,0.1073
318.0,0.08396
318.5,0.1048
319.0,0.1247
319.5,0.1013
320.0,0.1223
320.5,0.1539
321.0,0.1377
321.5,0.1321
322.0,0.1402
322.5,0.122
323.0,0.1219
323.5,0.1502
324.0,0.1754
324.5,0.1779
325.0,0.1535
325.5,0.1979
326.0,0.2422
326.5,0.2429
327.0,0.242
327.5,0.2337
328.0,0.2078
328.5,0.2189
329.0,0.2625
329.5,0.2981
330.0,0.3007
330.5,0.2405
331.0,0.245
331.5,0.2492
332.0,0.2696
332.5,0.2669
333.0,0.2661
333.5,0.2407
334.0,0.2466
334.5,0.2849
335.0,0.2679
335.5,0.3129
336.0,0.2166
336.5,0.2536
337.0,0.2081
337.5,0.2588
338.0,0.2529
338.5,0.292
339.0,0.2892
339.5,0.2782
340.0,0.327
340.5,0.2949
341.0,0.2876
341.5,0.2642
342.0,0.3158
342.5,0.2956
343.0,0.3251
343.5,0.3062
344.0,0.2264
344.5,0.2287
345.0,0.3027
345.5,0.3092
346.0,0.2629
346.5,0.2978
347.0,0.3197
347.5,0.2586
348.0,0.2949
348.5,0.2949
349.0,0.2736
349.5,0.271
350.0,0.3353
350.5,0.3538
351.0,0.3161
351.5,0.3073
352.0,0.3302
352.5,0.2577
353.0,0.3248
353.5,0.3474
354.0,0.3607
354.5,0.3659
355.0,0.3648
355.5,0.3297
356.0,0.345
356.5,0.2947
357.0,0.2435
357.5,0.2982
358.0,0.2364
358.5,0.202
359.0,0.2827
359.5,0.3603
360.0,0.382
360.5,0.3054
361.0,0.2785
361.5,0.3209
362.0,0.2776
362.5,0.3844
363.0,0.3454
363.5,0.3183
364.0,0.3894
364.5,0.3329
365.0,0.3392
365.5,0.4258
366.0,0.4513
366.5,0.4242
367.0,0.4132
367.5,0.429
368.0,0.3755
368.5,0.379
369.0,0.4095
369.5,0.4366
370.0,0.4656
370.5,0.3615
371.0,0.3864
371.5,0.4835
372.0,0.321
372.5,0.385
373.0,0.3918
373.5,0.255
374.0,0.3706
374.5,0.307
375.0,0.2986
375.5,0.4458
376.0,0.3697
376.5,0.3832
377.0,0.4058
377.5,0.475
378.0,0.515
378.5,0.4868
379.0,0.4018
379.5,0.3671
380.0,0.3818
380.5,0.4626
381.0,0.4638
381.5,0.3678
382.0,0.3267
382.5,0.2787
383.0,0.2581
383.5,0.2487
384.0,0.2744
384.5,0.4037
385.0,0.4005
385.5,0.3731
386.0,0.3196
386.5,0.42
387.0,0.3491
387.5,0.3922
388.0,0.3622
388.5,0.3582
389.0,0.3868
389.5,0.4686
390.0,0.4704
390.5,0.433
391.0,0.5099
391.5,0.5202
392.0,0.4383
392.5,0.3925
393.0,0.2185
393.5,0.1589
394.0,0.3233
394.5,0.4112
395.0,0.5019
395.5,0.51
396.0,0.4423
396.5,0.2586
397.0,0.1942
397.5,0.395
398.0,0.5532
398.5,0.5719
399.0,0.6196
399.5,0.6177
400.0,0.6415
401.0,0.6502
402.0,0.6864
403.0,0.6524
404.0,0.6426
405.0,0.6428
406.0,0.6327
407.0,0.6229
408.0,0.6474
409.0,0.6932
410.0,0.606
411.0,0.6567
412.0,0.7057
413.0,0.6884
414.0,0.6972
415.0,0.6994
416.0,0.712
417.0,0.6947
418.0,0.6821
419.0,0.6914
420.0,0.6885
421.0,0.7206
422.0,0.6852
423.0,0.6695
424.0,0.7083
425.0,0.7073
426.0,0.6893
427.0,0.6767
428.0,0.6593
429.0,0.6248
430.0,0.547
431.0,0.5423
432.0,0.7004
433.0,0.7045
434.0,0.6543
435.0,0.6835
436.0,0.7705
437.0,0.7604
438.0,0.6927
439.0,0.7163
440.0,0.7394
441.0,0.7665
442.0,0.8222
443.0,0.8009
444.0,0.8185
445.0,0.8009
446.0,0.7647
447.0,0.827
448.0,0.8398
449.0,0.8436
450.0,0.8674
451.0,0.8997
452.0,0.8671
453.0,0.8157
454.0,0.8518
455.0,0.8572
456.0,0.8777
457.0,0.8924
458.0,0.8619
459.0,0.8576
460.0,0.8599
461.0,0.8798
462.0,0.8868
463.0,0.8808
464.0,0.8665
465.0,0.8559
466.0,0.8644
467.0,0.8486
468.0,0.8586
469.0,0.8632
470.0,0.8357
471.0,0.8347
472.0,0.8795
473.0,0.8682
474.0,0.8693
475.0,0.8766
476.0,0.8501
477.0,0.8524
478.0,0.8761
479.0,0.871
480.0,0.8728
481.0,0.8894
482.0,0.8943
483.0,0.8838
484.0,0.8658
485.0,0.8251
486.0,0.7214
487.0,0.7563
488.0,0.8297
489.0,0.8322
490.0,0.8757
491.0,0.8607
492.0,0.8129
493.0,0.8395
494.0,0.848
495.0,0.8552
496.0,0.8606
497.0,0.8739
498.0,0.833
499.0,0.8436
500.0,0.8189
501.0,0.8037
502.0,0.7922
503.0,0.8241
504.0,0.8023
505.0,0.8318
506.0,0.8586
507.0,0.8171
508.0,0.7919
509.0,0.8144
510.0,0.8102
511.0,0.8322
512.0,0.8413
513.0,0.7963
514.0,0.791
515.0,0.7831
516.0,0.7812
517.0,0.6942
518.0,0.7298
519.0,0.7655
520.0,0.7933
521.0,0.8008
522.0,0.8014
523.0,0.7869
524.0,0.8149
525.0,0.8243
526.0,0.7874
527.0,0.7418
528.0,0.7844
529.0,0.8267
530.0,0.8147
531.0,0.8267
532.0,0.7983
533.0,0.7749
534.0,0.7979
535.0,0.8154
536.0,0.823
537.0,0.7906
538.0,0.8047
539.0,0.7979
540.0,0.7649
541.0,0.7697
542.0,0.7937
543.0,0.7856
544.0,0.799
545.0,0.7965
546.0,0.7998
547.0,0.7997
548.0,0.7902
549.0,0.7927
550.0,0.8021
551.0,0.7924
552.0,0.7979
553.0,0.7836
554.0,0.8023
555.0,0.8039
556.0,0.7934
557.0,0.7686
558.0,0.7627
559.0,0.7483
560.0,0.7576
561.0,0.7672
562.0,0.7615
563.0,0.7821
564.0,0.7606
565.0,0.7539
566.0,0.7427
567.0,0.7566
568.0,0.7494
569.0,0.7306
570.0,0.7305
571.0,0.7264
572.0,0.7431
573.0,0.751
574.0,0.7484
575.0,0.7342
576.0,0.7276
577.0,0.7356
578.0,0.7248
579.0,0.7281
580.0,0.7427
581.0,0.7471
582.0,0.7617
583.0,0.7639
584.0,0.7708
585.0,0.7522
586.0,0.7367
587.0,0.7526
588.0,0.733
589.0,0.647
590.0,0.6768
591.0,0.7177
592.0,0.7077
593.0,0.7193
594.0,0.7139
595.0,0.6954
596.0,0.7248
597.0,0.7164
598.0,0.7152
599.0,0.7161
600.0,0.7177
601.0,0.7122
602.0,0.7074
603.0,0.7193
604.0,0.7313
605.0,0.7276
606.0,0.7248
607.0,0.7323
608.0,0.7244
609.0,0.7258
610.0,0.7208
611.0,0.7247
612.0,0.7227
613.0,0.7137
614.0,0.7042
615.0,0.7197
616.0,0.6961
617.0,0.6948
618.0,0.7217
619.0,0.7144
620.0,0.7189
621.0,0.7195
622.0,0.7109
623.0,0.6999
624.0,0.688
625.0,0.6865
626.0,0.6966
627.0,0.704
628.0,0.6519
629.0,0.6854
630.0,0.6694
631.0,0.6864
632.0,0.6785
633.0,0.7
634.0,0.6937
635.0,0.7049
636.0,0.6959
637.0,0.7075
638.0,0.7148
639.0,0.707
640.0,0.7004
641.0,0.7001
642.0,0.6972
643.0,0.7066
644.0,0.7045
645.0,0.7055
646.0,0.6884
647.0,0.6787
648.0,0.6793
649.0,0.666
650.0,0.6712
651.0,0.7006
652.0,0.6694
653.0,0.6914
654.0,0.6839
655.0,0.6574
656.0,0.5834
657.0,0.5992
658.0,0.6721
659.0,0.6772
660.0,0.6801
661.0,0.6849
662.0,0.686
663.0,0.6725
664.0,0.6811
665.0,0.682
666.0,0.6828
667.0,0.6823
668.0,0.6829
669.0,0.6936
670.0,0.6906
671.0,0.6906
672.0,0.6848
673.0,0.6952
674.0,0.6927
675.0,0.6864
676.0,0.6912
677.0,0.6844
678.0,0.6865
679.0,0.6755
680.0,0.6809
681.0,0.6764
682.0,0.6756
683.0,0.6743
684.0,0.6709
685.0,0.6768
686.0,0.6727
687.0,0.4228
688.0,0.5066
689.0,0.5088
690.0,0.5374
691.0,0.57
692.0,0.5943
693.0,0.5891
694.0,0.5843
695.0,0.6115
696.0,0.6124
697.0,0.6535
698.0,0.6432
699.0,0.6255
700.0,0.6178
701.0,0.6108
702.0,0.6159
703.0,0.6171
704.0,0.6383
705.0,0.6393
706.0,0.6393
707.0,0.64
708.0,0.6413
709.0,0.6431
710.0,0.6426
711.0,0.6421
712.0,0.6406
713.0,0.6337
714.0,0.6362
715.0,0.6152
716.0,0.6153
717.0,0.525
718.0,0.481
719.0,0.4398
720.0,0.46
721.0,0.513
722.0,0.5925
723.0,0.5487
724.0,0.491
725.0,0.4819
726.0,0.5049
727.0,0.5143
728.0,0.4803
729.0,0.5014
730.0,0.5303
731.0,0.5065
732.0,0.5451
733.0,0.5801
734.0,0.5948
735.0,0.582
736.0,0.5812
737.0,0.5835
738.0,0.5947
739.0,0.5829
740.0,0.5988
741.0,0.5932
742.0,0.5942
743.0,0.6094
744.0,0.608
745.0,0.6083
746.0,0.6111
747.0,0.6125
748.0,0.6112
749.0,0.6043
750.0,0.6039
751.0,0.5978
752.0,0.6004
753.0,0.6035
754.0,0.6048
755.0,0.6014
756.0,0.6012
757.0,0.602
758.0,0.5945
759.0,0.5811
760.0,0.07557
761.0,0.03624
762.0,0.2716
763.0,0.1226
764.0,0.1955
765.0,0.2715
766.0,0.3452
767.0,0.448
768.0,0.5273
769.0,0.5408
770.0,0.5619
771.0,0.5676
772.0,0.5692
773.0,0.5732
774.0,0.5705
775.0,0.5663
776.0,0.5732
777.0,0.5656
778.0,0.5622
779.0,0.5627
780.0,0.5595
781.0,0.5601
782.0,0.5637
783.0,0.5539
784.0,0.5566
785.0,0.5524
786.0,0.5584
787.0,0.5476
788.0,0.5402
789.0,0.5399
790.0,0.524
791.0,0.53
792.0,0.5264
793.0,0.5177
794.0,0.5281
795.0,0.5366
796.0,0.518
797.0,0.5186
798.0,0.5357
799.0,0.5319
800.0,0.5222
801.0,0.5201
802.0,0.5186
803.0,0.5144
804.0,0.5153
805.0,0.5143
806.0,0.5298
807.0,0.5232
808.0,0.5237
809.0,0.5131
810.0,0.5084
811.0,0.5079
812.0,0.492
813.0,0.481
814.0,0.4186
815.0,0.4163
816.0,0.3869
817.0,0.3944
818.0,0.3786
819.0,0.4272
820.0,0.4009
821.0,0.4741
822.0,0.4596
823.0,0.304
824.0,0.4443
825.0,0.4657
826.0,0.4463
827.0,0.4728
828.0,0.3957
829.0,0.444
830.0,0.4377
831.0,0.4393
832.0,0.4249
833.0,0.4546
834.0,0.4368
835.0,0.4837
836.0,0.4605
837.0,0.4851
838.0,0.4688
839.0,0.4781
840.0,0.4889
841.0,0.4814
842.0,0.4833
843.0,0.4838
844.0,0.4766
845.0,0.4934
846.0,0.4914
847.0,0.4825
848.0,0.4791
849.0,0.4655
850.0,0.446
851.0,0.4718
852.0,0.4687
853.0,0.4515
854.0,0.3895
855.0,0.4283
856.0,0.4679
857.0,0.4786
858.0,0.475
859.0,0.4756
860.0,0.4765
861.0,0.4739
862.0,0.4814
863.0,0.4928
864.0,0.4682
865.0,0.4641
866.0,0.4173
867.0,0.4355
868.0,0.4739
869.0,0.4641
870.0,0.4773
871.0,0.4708
872.0,0.4692
873.0,0.4683
874.0,0.4627
875.0,0.4533
876.0,0.458
877.0,0.4627
878.0,0.4676
879.0,0.4604
880.0,0.4506
881.0,0.4436
882.0,0.4531
883.0,0.4548
884.0,0.4526
885.0,0.456
886.0,0.4339
887.0,0.4391
888.0,0.4452
889.0,0.4509
890.0,0.4463
891.0,0.446
892.0,0.4321
893.0,0.4174
894.0,0.4004
895.0,0.3755
896.0,0.3527
897.0,0.2993
898.0,0.3286
899.0,0.2457
900.0,0.3388
901.0,0.2576
902.0,0.308
903.0,0.3091
904.0,0.3974
905.0,0.3826
906.0,0.3571
907.0,0.2844
908.0,0.291
909.0,0.3177
910.0,0.2763
911.0,0.2976
912.0,0.3119
913.0,0.2802
914.0,0.2787
915.0,0.3022
916.0,0.2547
917.0,0.3282
918.0,0.2609
919.0,0.3356
920.0,0.3419
921.0,0.3558
922.0,0.3146
923.0,0.3439
924.0,0.3219
925.0,0.315
926.0,0.3181
927.0,0.3596
928.0,0.2539
929.0,0.2291
930.0,0.1758
931.0,0.1671
932.0,0.1159
933.0,0.09201
934.0,0.04592
935.0,0.09595
936.0,0.05699
937.0,0.05748
938.0,0.07181
939.0,0.1618
940.0,0.1978
941.0,0.1451
942.0,0.1705
943.0,0.1088
944.0,0.1178
945.0,0.1504
946.0,0.07213
947.0,0.1499
948.0,0.1096
949.0,0.2051
950.0,0.05047
951.0,0.2027
952.0,0.1031
953.0,0.137
954.0,0.1723
955.0,0.1391
956.0,0.138
957.0,0.1028
958.0,0.2012
959.0,0.1548
960.0,0.1736
961.0,0.1987
962.0,0.1876
963.0,0.2197
964.0,0.2002
965.0,0.2191
966.0,0.2184
967.0,0.2171
968.0,0.3035
969.0,0.3157
970.0,0.2884
971.0,0.3356
972.0,0.32
973.0,0.2731
974.0,0.2585
975.0,0.2704
976.0,0.2537
977.0,0.2948
978.0,0.2775
979.0,0.2924
980.0,0.2739
981.0,0.3339
982.0,0.3172
983.0,0.3034
984.0,0.3464
985.0,0.316
986.0,0.3539
987.0,0.3453
988.0,0.3448
989.0,0.3538
990.0,0.3427
991.0,0.3546
992.0,0.3569
993.0,0.3473
994.0,0.3569
995.0,0.3567
996.0,0.3549
997.0,0.3555
998.0,0.3537
999.0,0.3525
1000.0,0.3497
1001.0,0.3545
1002.0,0.3431
1003.0,0.3481
1004.0,0.3392
1005.0,0.3273
1006.0,0.3398
1007.0,0.3472
1008.0,0.345
1009.0,0.3428
1010.0,0.3412
1011.0,0.3454
1012.0,0.3421
1013.0,0.3447
1014.0,0.3423
1015.0,0.34
1016.0,0.3384
1017.0,0.3392
1018.0,0.3381
1019.0,0.3303
1020.0,0.3362
1021.0,0.3359
1022.0,0.3331
1023.0,0.3365
1024.0,0.3315
1025.0,0.3365
1026.0,0.3349
1027.0,0.3342
1028.0,0.3334
1029.0,0.3294
1030.0,0.3319
1031.0,0.3305
1032.0,0.3296
1033.0,0.3246
1034.0,0.3247
1035.0,0.3257
1036.0,0.3273
1037.0,0.322
1038.0,0.3234
1039.0,0.3232
1040.0,0.3219
1041.0,0.3231
1042.0,0.3208
1043.0,0.3198
1044.0,0.3209
1045.0,0.3165
1046.0,0.3129
1047.0,0.3157
1048.0,0.3174
1049.0,0.3162
1050.0,0.3147
1051.0,0.3142
1052.0,0.3128
1053.0,0.3103
1054.0,0.3109
1055.0,0.311
1056.0,0.3098
1057.0,0.3087
1058.0,0.301
1059.0,0.3013
1060.0,0.3008
1061.0,0.3004
1062.0,0.3018
1063.0,0.2988
1064.0,0.3023
1065.0,0.2999
1066.0,0.2942
1067.0,0.2979
1068.0,0.2912
1069.0,0.2824
1070.0,0.2918
1071.0,0.2969
1072.0,0.293
1073.0,0.2889
1074.0,0.297
1075.0,0.2804
1076.0,0.2967
1077.0,0.2904
1078.0,0.2845
1079.0,0.2922
1080.0,0.286
1081.0,0.276
1082.0,0.2818
1083.0,0.283
1084.0,0.2749
1085.0,0.2868
1086.0,0.2593
1087.0,0.2693
1088.0,0.2825
1089.0,0.2722
1090.0,0.2653
1091.0,0.2811
1092.0,0.2807
1093.0,0.2335
1094.0,0.2563
1095.0,0.2438
1096.0,0.2321
1097.0,0.2743
1098.0,0.2279
1099.0,0.2385
1100.0,0.2198
1101.0,0.2231
1102.0,0.2119
1103.0,0.2089
1104.0,0.2093
1105.0,0.2326
1106.0,0.1705
1107.0,0.2195
1108.0,0.1816
1109.0,0.1828
1110.0,0.2169
1111.0,0.1412
1112.0,0.1817
1113.0,0.1097
1114.0,0.1231
1115.0,0.1018
1116.0,0.07781
1117.0,0.02508
1118.0,0.08576
1119.0,0.03959
1120.0,0.04956
1121.0,0.06751
1122.0,0.02592
1123.0,0.04491
1124.0,0.03787
1125.0,0.05013
1126.0,0.01504
1127.0,0.05678
1128.0,0.03128
1129.0,0.03353
1130.0,0.0212
1131.0,0.1144
1132.0,0.08849
1133.0,0.05242
1134.0,0.01153
1135.0,0.004436
1136.0,0.04245
1137.0,0.1111
1138.0,0.0776
1139.0,0.1231
1140.0,0.1
1141.0,0.07381
1142.0,0.08636
1143.0,0.1257
1144.0,0.04047
1145.0,0.05061
1146.0,0.05454
1147.0,0.01673
1148.0,0.1086
1149.0,0.08455
1150.0,0.04399
1151.0,0.07697
1152.0,0.09732
1153.0,0.09683
1154.0,0.04884
1155.0,0.1283
1156.0,0.1141
1157.0,0.1305
1158.0,0.1291
1159.0,0.141
1160.0,0.1187
1161.0,0.1502
1162.0,0.1506
1163.0,0.2102
1164.0,0.1778
1165.0,0.1654
1166.0,0.1661
1167.0,0.182
1168.0,0.1835
1169.0,0.1886
1170.0,0.207
1171.0,0.2016
1172.0,0.2065
1173.0,0.2066
1174.0,0.1428
1175.0,0.2027
1176.0,0.2253
1177.0,0.2147
1178.0,0.1577
1179.0,0.2272
1180.0,0.2001
1181.0,0.2067
1182.0,0.1389
1183.0,0.2041
1184.0,0.19
1185.0,0.1822
1186.0,0.2198
1187.0,0.2082
1188.0,0.1407
1189.0,0.1937
1190.0,0.215
1191.0,0.2019
1192.0,0.2182
1193.0,0.2084
1194.0,0.2152
1195.0,0.2021
1196.0,0.1938
1197.0,0.2161
1198.0,0.1968
1199.0,0.1642
1200.0,0.2056
1201.0,0.1972
1202.0,0.1969
1203.0,0.1949
1204.0,0.1689
1205.0,0.2024
1206.0,0.2251
1207.0,0.196
1208.0,0.1938
1209.0,0.198
1210.0,0.207
1211.0,0.196
1212.0,0.1921
1213.0,0.217
1214.0,0.1974
1215.0,0.1934
1216.0,0.2164
1217.0,0.2101
1218.0,0.2146
1219.0,0.2117
1220.0,0.2149
1221.0,0.2174
1222.0,0.2114
1223.0,0.2092
1224.0,0.2074
1225.0,0.2159
1226.0,0.2178
1227.0,0.1994
1228.0,0.2192
1229.0,0.2178
1230.0,0.2138
1231.0,0.2209
1232.0,0.2195
1233.0,0.2107
1234.0,0.2209
1235.0,0.2194
1236.0,0.2211
1237.0,0.2175
1238.0,0.2204
1239.0,0.2175
1240.0,0.2184
1241.0,0.2171
1242.0,0.2169
1243.0,0.2151
1244.0,0.2166
1245.0,0.2175
1246.0,0.2163
1247.0,0.2154
1248.0,0.2151
1249.0,0.2159
1250.0,0.2145
1251.0,0.2115
1252.0,0.2118
1253.0,0.2097
1254.0,0.2072
1255.0,0.2115
1256.0,0.2047
1257.0,0.2034
1258.0,0.2079
1259.0,0.1991
1260.0,0.2003
1261.0,0.1874
1262.0,0.181
1263.0,0.1813
1264.0,0.1654
1265.0,0.1802
1266.0,0.1722
1267.0,0.176
1268.0,0.1657
1269.0,0.09486
1270.0,0.1751
1271.0,0.187
1272.0,0.1878
1273.0,0.1856
1274.0,0.1865
1275.0,0.1895
1276.0,0.1916
1277.0,0.1933
1278.0,0.1976
1279.0,0.1958
1280.0,0.1934
1281.0,0.1848
1282.0,0.1786
1283.0,0.1922
1284.0,0.1967
1285.0,0.1981
1286.0,0.201
1287.0,0.1974
1288.0,0.1975
1289.0,0.1903
1290.0,0.1958
1291.0,0.1988
1292.0,0.1849
1293.0,0.1945
1294.0,0.193
1295.0,0.1915
1296.0,0.1817
1297.0,0.171
1298.0,0.1859
1299.0,0.1949
1300.0,0.1619
1301.0,0.1674
1302.0,0.1853
1303.0,0.1601
1304.0,0.1336
1305.0,0.1813
1306.0,0.1811
1307.0,0.1376
1308.0,0.1608
1309.0,0.1794
1310.0,0.1348
1311.0,0.1535
1312.0,0.1489
1313.0,0.1455
1314.0,0.1292
1315.0,0.1268
1316.0,0.1505
1317.0,0.1423
1318.0,0.1558
1319.0,0.1183
1320.0,0.1154
1321.0,0.1356
1322.0,0.1363
1323.0,0.09965
1324.0,0.1161
1325.0,0.1481
1326.0,0.1253
1327.0,0.119
1328.0,0.1016
1329.0,0.07372
1330.0,0.09729
1331.0,0.0557
1332.0,0.05851
1333.0,0.08209
1334.0,0.0712
1335.0,0.09916
1336.0,0.07678
1337.0,0.06716
1338.0,0.07262
1339.0,0.07274
1340.0,0.07161
1341.0,0.06792
1342.0,0.07154
1343.0,0.04468
1344.0,0.02705
1345.0,0.03906
1346.0,0.01719
1347.0,0.0171
1348.0,0.0008458
1349.0,0.003272
1350.0,0.003582
1351.0,0.00068
1352.0,0.0001379
1353.0,5.353e-06
1354.0,2.234e-05
1355.0,9.946e-08
1356.0,2.575e-06
1357.0,3.939e-06
1358.0,1.207e-07
1359.0,9.623e-09
1360.0,4.693e-08
1361.0,2.049e-11
1362.0,3.888e-14
1363.0,5.379e-08
1364.0,2.233e-08
1365.0,8.216e-15
1366.0,2.651e-07
1367.0,1.209e-07
1368.0,2.599e-17
1369.0,8.211e-09
1370.0,3.338e-09
1371.0,1.523e-10
1372.0,6.702e-08
1373.0,1.826e-06
1374.0,1.047e-05
1375.0,1.854e-05
1376.0,2.036e-05
1377.0,8.935e-06
1378.0,9.428e-05
1379.0,3.75e-06
1380.0,4.703e-06
1381.0,1.104e-07
1382.0,5.711e-08
1383.0,7.381e-10
1384.0,8.552e-09
1385.0,6.782e-08
1386.0,4.424e-08
1387.0,9.385e-06
1388.0,1.921e-07
1389.0,4.078e-05
1390.0,3.469e-05
1391.0,2.236e-05
1392.0,1.382e-06
1393.0,8.178e-06
1394.0,2.957e-06
1395.0,1.755e-08
1396.0,3.356e-11
1397.0,3.001e-06
1398.0,0.000103
1399.0,6.603e-05
1400.0,1.124e-11
1401.0,6.611e-11
1402.0,0.0002508
1403.0,0.0002966
1404.0,8.791e-05
1405.0,7.238e-09
1406.0,0.0002061
1407.0,2.008e-05
1408.0,0.000172
1409.0,4.854e-05
1410.0,4.432e-05
1411.0,0.0002641
1412.0,0.0003874
1413.0,0.005043
1414.0,3.583e-05
1415.0,1.59e-05
1416.0,0.009742
1417.0,0.002509
1418.0,0.002742
1419.0,0.0004093
1420.0,0.001665
1421.0,0.001835
1422.0,0.01279
1423.0,0.002375
1424.0,0.004585
1425.0,0.006497
1426.0,0.007947
1427.0,0.01588
1428.0,0.000774
1429.0,0.01121
1430.0,0.02085
1431.0,0.02335
1432.0,0.0006019
1433.0,0.01426
1434.0,0.006963
1435.0,0.005994
