interpolation:linear
wavelength,value
280.0,2.021e-21
280.5,6.401000000000001e-20
281.0,3.389e-19
281.5,4.152e-19
282.0,1.024e-18
282.5,2.635e-18
283.0,8.432e-18
283.5,1.376e-17
284.0,2.234e-16
284.5,6.452e-16
285.0,1.405e-15
285.5,6.75e-15
286.0,2.694e-14
286.5,1.186e-13
287.0,3.356e-13
287.5,1.271e-12
288.0,3.555e-12
288.5,1.154e-11
289.0,3.219e-11
289.5,1.005e-10
290.0,2.845e-10
290.5,5.879e-10
291.0,1.277e-09
291.5,3.705e-09
292.0,7.63e-09
292.5,1.132e-08
293.0,2.603e-08
293.5,6.946e-08
294.0,1.158e-07
294.5,1.503e-07
295.0,2.705e-07
295.5,6.663e-07
296.0,1.323e-06
296.5,1.928e-06
297.0,2.709e-06
297.5,7.744e-06
298.0,1.297e-05
298.5,1.374e-05
299.0,3.198e-05
299.5,5.887e-05
300.0,6.903e-05
300.5,0.0001074
301.0,0.0002211
301.5,0.0004059
302.0,0.0003788
302.5,0.000753
303.0,0.001384
303.5,0.001769
304.0,0.001682
304.5,0.002582
305.0,0.004069
305.5,0.004773
306.0,0.004663
306.5,0.005894
307.0,0.009028
307.5,0.01237
308.0,0.01313
308.5,0.01573
309.0,0.01559
309.5,0.01814
310.0,0.01837
310.5,0.02987
311.0,0.03774
311.5,0.03654
312.0,0.03703
312.5,0.04547
313.0,0.04955
313.5,0.04793
314.0,0.06056
314.5,0.05444
315.0,0.07172
315.5,0.05963
316.0,0.05265
316.5,0.07631
317.0,0.09475
317.5,0.09837
318.0,0.07723
318.5,0.09702
319.0,0.1158
319.5,0.09357
320.0,0.1129
320.5,0.143
321.0,0.1286
321.5,0.1235
322.0,0.1302
322.5,0.1134
323.0,0.1137
323.5,0.1407
324.0,0.1644
324.5,0.1665
325.0,0.1434
325.5,0.1855
326.0,0.2271
326.5,0.2283
327.0,0.2273
327.5,0.2193
328.0,0.1944
328.5,0.2055
329.0,0.247
329.5,0.2808
330.0,0.2831
330.5,0.2259
331.0,0.23
331.5,0.2344
332.0,0.2541
332.5,0.2518
333.0,0.2509
333.5,0.2266
334.0,0.2321
334.5,0.2686
335.0,0.2529
335.5,0.2954
336.0,0.2045
336.5,0.2393
337.0,0.1962
337.5,0.244
338.0,0.2388
338.5,0.2758
339.0,0.2731
339.5,0.2628
340.0,0.3088
340.5,0.2785
341.0,0.2717
341.5,0.2496
342.0,0.2984
342.5,0.2793
343.0,0.3072
343.5,0.2893
344.0,0.2139
344.5,0.2161
345.0,0.2861
345.5,0.2923
346.0,0.2485
346.5,0.2815
347.0,0.3023
347.5,0.2445
348.0,0.2788
348.5,0.2788
349.0,0.2588
349.5,0.2563
350.0,0.3171
350.5,0.3346
351.0,0.299
351.5,0.2906
352.0,0.3123
352.5,0.2438
353.0,0.3072
353.5,0.3287
354.0,0.3413
354.5,0.3462
355.0,0.3451
355.5,0.3119
356.0,0.3265
356.5,0.2788
357.0,0.2304
357.5,0.2822
358.0,0.2237
358.5,0.1912
359.0,0.2675
359.5,0.341
360.0,0.3616
360.5,0.2891
361.0,0.2636
361.5,0.3037
362.0,0.2628
362.5,0.3639
363.0,0.327
363.5,0.3014
364.0,0.3688
364.5,0.3153
365.0,0.3212
365.5,0.4033
366.0,0.4275
366.5,0.4019
367.0,0.3915
367.5,0.4064
368.0,0.3558
368.5,0.3591
369.0,0.388
369.5,0.4137
370.0,0.4412
370.5,0.3425
371.0,0.3662
371.5,0.4582
372.0,0.3042
372.5,0.3649
373.0,0.3713
373.5,0.2417
374.0,0.3513
374.5,0.2911
375.0,0.283
375.5,0.4227
376.0,0.3505
376.5,0.3633
377.0,0.3848
377.5,0.4504
378.0,0.4883
378.5,0.4617
379.0,0.3811
379.5,0.3481
380.0,0.3621
380.5,0.4387
381.0,0.4399
381.5,0.3488
382.0,0.3099
382.5,0.2644
383.0,0.2448
383.5,0.2359
384.0,0.2603
384.5,0.383
385.0,0.38
385.5,0.354
386.0,0.3033
386.5,0.3986
387.0,0.3313
387.5,0.3723
388.0,0.3438
388.5,0.34
389.0,0.3671
389.5,0.4448
390.0,0.4466
390.5,0.4111
391.0,0.4841
391.5,0.4939
392.0,0.4161
392.5,0.3727
393.0,0.2074
393.5,0.1508
394.0,0.3071
394.5,0.3905
395.0,0.4767
395.5,0.4843
396.0,0.4201
396.5,0.2457
397.0,0.1844
397.5,0.3752
398.0,0.5255
398.5,0.5433
399.0,0.5886
399.5,0.5869
400.0,0.6095
401.0,0.6175
402.0,0.6519
403.0,0.6197
404.0,0.6105
405.0,0.6107
406.0,0.6012
407.0,0.5918
408.0,0.6151
409.0,0.6587
410.0,0.5759
411.0,0.6242
412.0,0.6708
413.0,0.6544
414.0,0.6628
415.0,0.6649
416.0,0.677
417.0,0.6606
418.0,0.6487
419.0,0.6575
420.0,0.6549
421.0,0.6854
422.0,0.6517
423.0,0.6369
424.0,0.6738
425.0,0.6729
426.0,0.6559
427.0,0.6439
428.0,0.6274
429.0,0.5947
430.0,0.5207
431.0,0.5161
432.0,0.6667
433.0,0.6707
434.0,0.6229
435.0,0.6507
436.0,0.7335
437.0,0.7241
438.0,0.6596
439.0,0.6821
440.0,0.7041
441.0,0.7299
442.0,0.7831
443.0,0.7627
444.0,0.7796
445.0,0.7628
446.0,0.7284
447.0,0.7879
448.0,0.8
449.0,0.8037
450.0,0.8265
451.0,0.8573
452.0,0.8262
453.0,0.7773
454.0,0.8118
455.0,0.8169
456.0,0.8365
457.0,0.8506
458.0,0.8215
459.0,0.8174
460.0,0.8196
461.0,0.8386
462.0,0.8453
463.0,0.8395
464.0,0.8261
465.0,0.816
466.0,0.8242
467.0,0.8091
468.0,0.8187
469.0,0.8231
470.0,0.7968
471.0,0.7959
472.0,0.8387
473.0,0.8278
474.0,0.8288
475.0,0.8357
476.0,0.8104
477.0,0.8125
478.0,0.8352
479.0,0.8303
480.0,0.8322
481.0,0.848
482.0,0.8528
483.0,0.8428
484.0,0.8258
485.0,0.787
486.0,0.6882
487.0,0.7215
488.0,0.7915
489.0,0.7939
490.0,0.8354
491.0,0.8212
492.0,0.7755
493.0,0.801
494.0,0.8091
495.0,0.816
496.0,0.8211
497.0,0.8338
498.0,0.7948
499.0,0.8049
500.0,0.7813
501.0,0.7667
502.0,0.7556
503.0,0.786
504.0,0.7648
505.0,0.7932
506.0,0.8188
507.0,0.7792
508.0,0.7553
509.0,0.7768
510.0,0.7729
511.0,0.7939
512.0,0.8027
513.0,0.7598
514.0,0.7547
515.0,0.7472
516.0,0.7453
517.0,0.6623
518.0,0.6963
519.0,0.7303
520.0,0.7569
521.0,0.764
522.0,0.7646
523.0,0.7508
524.0,0.7774
525.0,0.7863
526.0,0.751
527.0,0.7075
528.0,0.748
529.0,0.7883
530.0,0.7769
531.0,0.7883
532.0,0.7612
533.0,0.7389
534.0,0.7608
535.0,0.7776
536.0,0.7849
537.0,0.754
538.0,0.7674
539.0,0.761
540.0,0.7295
541.0,0.734
542.0,0.7568
543.0,0.7491
544.0,0.7618
545.0,0.7595
546.0,0.7626
547.0,0.7625
548.0,0.7535
549.0,0.7559
550.0,0.7649
551.0,0.7557
552.0,0.7609
553.0,0.7473
554.0,0.7651
555.0,0.7665
556.0,0.7565
557.0,0.7329
558.0,0.7272
559.0,0.7134
560.0,0.7222
561.0,0.7314
562.0,0.7259
563.0,0.7454
564.0,0.7249
565.0,0.7185
566.0,0.7077
567.0,0.7209
568.0,0.7138
569.0,0.6956
570.0,0.6956
571.0,0.6917
572.0,0.7075
573.0,0.7149
574.0,0.7124
575.0,0.6988
576.0,0.6925
577.0,0.7001
578.0,0.69
579.0,0.6933
580.0,0.7074
581.0,0.7118
582.0,0.7258
583.0,0.7281
584.0,0.7348
585.0,0.7171
586.0,0.7023
587.0,0.7173
588.0,0.6983
589.0,0.6155
590.0,0.644
591.0,0.6833
592.0,0.6736
593.0,0.685
594.0,0.6796
595.0,0.6617
596.0,0.6904
597.0,0.6823
598.0,0.6813
599.0,0.6822
600.0,0.6839
601.0,0.6788
602.0,0.6742
603.0,0.6856
604.0,0.6971
605.0,0.6937
606.0,0.6911
607.0,0.6982
608.0,0.6908
609.0,0.6922
610.0,0.6875
611.0,0.6913
612.0,0.6894
613.0,0.6809
614.0,0.6718
615.0,0.6867
616.0,0.6643
617.0,0.663
618.0,0.6887
619.0,0.6818
620.0,0.6861
621.0,0.6866
622.0,0.6783
623.0,0.6678
624.0,0.6565
625.0,0.6551
626.0,0.6647
627.0,0.6716
628.0,0.6201
629.0,0.6532
630.0,0.6379
631.0,0.6547
632.0,0.6473
633.0,0.668
634.0,0.6623
635.0,0.673
636.0,0.6646
637.0,0.6758
638.0,0.6828
639.0,0.6754
640.0,0.6692
641.0,0.669
642.0,0.6663
643.0,0.6753
644.0,0.6734
645.0,0.6743
646.0,0.6578
647.0,0.648
648.0,0.6485
649.0,0.6358
650.0,0.6414
651.0,0.6696
652.0,0.6391
653.0,0.6609
654.0,0.6537
655.0,0.6281
656.0,0.5576
657.0,0.5727
658.0,0.6426
659.0,0.6476
660.0,0.6504
661.0,0.6551
662.0,0.6559
663.0,0.6431
664.0,0.6515
665.0,0.6525
666.0,0.6533
667.0,0.6529
668.0,0.6535
669.0,0.6638
670.0,0.661
671.0,0.661
672.0,0.6555
673.0,0.6655
674.0,0.6631
675.0,0.6572
676.0,0.6618
677.0,0.6553
678.0,0.6573
679.0,0.6467
680.0,0.652
681.0,0.6477
682.0,0.6469
683.0,0.6457
684.0,0.6425
685.0,0.6481
686.0,0.6441
687.0,0.3973
688.0,0.4796
689.0,0.4818
690.0,0.5102
691.0,0.5426
692.0,0.5669
693.0,0.5618
694.0,0.5574
695.0,0.5842
696.0,0.5851
697.0,0.6255
698.0,0.6157
699.0,0.5979
700.0,0.5906
701.0,0.5835
702.0,0.5887
703.0,0.59
704.0,0.6107
705.0,0.6116
706.0,0.6118
707.0,0.6125
708.0,0.6137
709.0,0.6158
710.0,0.6152
711.0,0.6147
712.0,0.6135
713.0,0.6068
714.0,0.6092
715.0,0.5888
716.0,0.5888
717.0,0.4996
718.0,0.4574
719.0,0.418
720.0,0.4369
721.0,0.4889
722.0,0.5665
723.0,0.5237
724.0,0.4676
725.0,0.4586
726.0,0.4806
727.0,0.4902
728.0,0.4569
729.0,0.478
730.0,0.5054
731.0,0.4825
732.0,0.5203
733.0,0.5546
734.0,0.569
735.0,0.5566
736.0,0.5558
737.0,0.558
738.0,0.5694
739.0,0.5581
740.0,0.5736
741.0,0.5684
742.0,0.5694
743.0,0.5841
744.0,0.5827
745.0,0.5831
746.0,0.5858
747.0,0.5871
748.0,0.5859
749.0,0.5793
750.0,0.5789
751.0,0.5731
752.0,0.5756
753.0,0.5785
754.0,0.5798
755.0,0.5765
756.0,0.5763
757.0,0.5771
758.0,0.5699
759.0,0.5566
760.0,0.06675
761.0,0.03112
762.0,0.2526
763.0,0.1104
764.0,0.1794
765.0,0.2525
766.0,0.3246
767.0,0.4252
768.0,0.5037
769.0,0.5172
770.0,0.5382
771.0,0.544
772.0,0.5457
773.0,0.5496
774.0,0.5471
775.0,0.543
776.0,0.5496
777.0,0.5424
778.0,0.5391
779.0,0.5395
780.0,0.5365
781.0,0.5371
782.0,0.5405
783.0,0.5311
784.0,0.5338
785.0,0.5297
786.0,0.5354
787.0,0.5247
788.0,0.5175
789.0,0.5172
790.0,0.5015
791.0,0.5077
792.0,0.5043
793.0,0.4959
794.0,0.5064
795.0,0.5144
796.0,0.496
797.0,0.4964
798.0,0.5135
799.0,0.5097
800.0,0.5002
801.0,0.4981
802.0,0.4966
803.0,0.4925
804.0,0.4935
805.0,0.4927
806.0,0.5079
807.0,0.5014
808.0,0.502
809.0,0.4916
810.0,0.4869
811.0,0.4861
812.0,0.4705
813.0,0.4597
814.0,0.3988
815.0,0.3966
816.0,0.3685
817.0,0.3758
818.0,0.3604
819.0,0.4078
820.0,0.3822
821.0,0.4537
822.0,0.4396
823.0,0.2882
824.0,0.4243
825.0,0.4457
826.0,0.4266
827.0,0.4524
828.0,0.3771
829.0,0.4244
830.0,0.4183
831.0,0.4199
832.0,0.4058
833.0,0.4349
834.0,0.4174
835.0,0.4633
836.0,0.4404
837.0,0.4647
838.0,0.4488
839.0,0.458
840.0,0.4685
841.0,0.4612
842.0,0.4632
843.0,0.464
844.0,0.4569
845.0,0.4732
846.0,0.4713
847.0,0.4628
848.0,0.4595
849.0,0.4464
850.0,0.4277
851.0,0.4524
852.0,0.4494
853.0,0.433
854.0,0.3735
855.0,0.4109
856.0,0.4488
857.0,0.4591
858.0,0.4556
859.0,0.4562
860.0,0.4572
861.0,0.4546
862.0,0.4618
863.0,0.4728
864.0,0.4491
865.0,0.4453
866.0,0.4004
867.0,0.4178
868.0,0.4547
869.0,0.4453
870.0,0.458
871.0,0.4517
872.0,0.4502
873.0,0.4493
874.0,0.4439
875.0,0.4349
876.0,0.4394
877.0,0.4439
878.0,0.4486
879.0,0.4418
880.0,0.4323
881.0,0.4256
882.0,0.4347
883.0,0.4363
884.0,0.4342
885.0,0.4375
886.0,0.416
887.0,0.4211
888.0,0.4269
889.0,0.4326
890.0,0.428
891.0,0.4277
892.0,0.4141
893.0,0.3998
894.0,0.383
895.0,0.3584
896.0,0.3364
897.0,0.2847
898.0,0.3129
899.0,0.233
900.0,0.3232
901.0,0.2442
902.0,0.2935
903.0,0.294
904.0,0.3801
905.0,0.3656
906.0,0.341
907.0,0.2703
908.0,0.2767
909.0,0.3028
910.0,0.2622
911.0,0.2832
912.0,0.2969
913.0,0.2658
914.0,0.2646
915.0,0.2869
916.0,0.2417
917.0,0.3124
918.0,0.2474
919.0,0.3198
920.0,0.3266
921.0,0.3399
922.0,0.2997
923.0,0.3286
924.0,0.3065
925.0,0.3
926.0,0.3028
927.0,0.3431
928.0,0.2401
929.0,0.216
930.0,0.1648
931.0,0.1567
932.0,0.1077
933.0,0.08502
934.0,0.04147
935.0,0.08904
936.0,0.05226
937.0,0.05268
938.0,0.06604
939.0,0.1517
940.0,0.1862
941.0,0.1356
942.0,0.1599
943.0,0.1014
944.0,0.1104
945.0,0.1408
946.0,0.06658
947.0,0.1401
948.0,0.1023
949.0,0.1926
950.0,0.04611
951.0,0.1905
952.0,0.09575
953.0,0.128
954.0,0.1619
955.0,0.13
956.0,0.1298
957.0,0.09537
958.0,0.1903
959.0,0.1454
960.0,0.163
961.0,0.1875
962.0,0.177
963.0,0.208
964.0,0.1893
965.0,0.2074
966.0,0.2066
967.0,0.2053
968.0,0.2898
969.0,0.301
970.0,0.2748
971.0,0.3209
972.0,0.3057
973.0,0.2597
974.0,0.2457
975.0,0.2575
976.0,0.2409
977.0,0.2813
978.0,0.2643
979.0,0.2787
980.0,0.2609
981.0,0.3193
982.0,0.3029
983.0,0.2895
984.0,0.3318
985.0,0.3017
986.0,0.3393
987.0,0.3306
988.0,0.3302
989.0,0.3394
990.0,0.3281
991.0,0.3402
992.0,0.3423
993.0,0.3327
994.0,0.3424
995.0,0.3423
996.0,0.3405
997.0,0.3411
998.0,0.3394
999.0,0.3382
1000.0,0.3354
1001.0,0.3401
1002.0,0.3288
1003.0,0.334
1004.0,0.3253
1005.0,0.3141
1006.0,0.326
1007.0,0.3331
1008.0,0.3309
1009.0,0.3288
1010.0,0.3272
1011.0,0.3314
1012.0,0.3282
1013.0,0.3307
1014.0,0.3284
1015.0,0.3262
1016.0,0.3247
1017.0,0.3254
1018.0,0.3244
1019.0,0.3168
1020.0,0.3226
1021.0,0.3223
1022.0,0.3195
1023.0,0.3229
1024.0,0.3179
1025.0,0.3229
1026.0,0.3213
1027.0,0.3206
1028.0,0.3199
1029.0,0.3161
1030.0,0.3185
1031.0,0.3171
1032.0,0.3163
1033.0,0.3115
1034.0,0.3115
1035.0,0.3125
1036.0,0.314
1037.0,0.309
1038.0,0.3103
1039.0,0.3101
1040.0,0.3088
1041.0,0.31
1042.0,0.3078
1043.0,0.3068
1044.0,0.3078
1045.0,0.3036
1046.0,0.3002
1047.0,0.3028
1048.0,0.3045
1049.0,0.3033
1050.0,0.3018
1051.0,0.3013
1052.0,0.3
1053.0,0.2976
1054.0,0.2981
1055.0,0.2982
1056.0,0.297
1057.0,0.296
1058.0,0.2886
1059.0,0.2888
1060.0,0.2883
1061.0,0.2879
1062.0,0.2893
1063.0,0.2863
1064.0,0.2898
1065.0,0.2874
1066.0,0.2819
1067.0,0.2855
1068.0,0.2791
1069.0,0.2706
1070.0,0.2796
1071.0,0.2846
1072.0,0.2808
1073.0,0.2769
1074.0,0.2848
1075.0,0.2685
1076.0,0.2844
1077.0,0.2782
1078.0,0.2725
1079.0,0.2802
1080.0,0.274
1081.0,0.2642
1082.0,0.2701
1083.0,0.2714
1084.0,0.2631
1085.0,0.2748
1086.0,0.2479
1087.0,0.2579
1088.0,0.2708
1089.0,0.2606
1090.0,0.2538
1091.0,0.2694
1092.0,0.2691
1093.0,0.2229
1094.0,0.2455
1095.0,0.2328
1096.0,0.2213
1097.0,0.2629
1098.0,0.2172
1099.0,0.2274
1100.0,0.2092
1101.0,0.2125
1102.0,0.2016
1103.0,0.1986
1104.0,0.199
1105.0,0.2217
1106.0,0.161
1107.0,0.2089
1108.0,0.172
1109.0,0.1733
1110.0,0.2063
1111.0,0.1331
1112.0,0.1723
1113.0,0.1029
1114.0,0.1155
1115.0,0.09539
1116.0,0.07223
1117.0,0.02263
1118.0,0.0798
1119.0,0.03626
1120.0,0.04531
1121.0,0.06206
1122.0,0.02334
1123.0,0.04109
1124.0,0.03464
1125.0,0.04601
1126.0,0.01334
1127.0,0.05216
1128.0,0.0282
1129.0,0.03029
1130.0,0.01902
1131.0,0.1065
1132.0,0.08212
1133.0,0.04791
1134.0,0.01019
1135.0,0.00395
1136.0,0.03854
1137.0,0.1032
1138.0,0.07192
1139.0,0.1157
1140.0,0.09343
1141.0,0.06843
1142.0,0.08035
1143.0,0.1177
1144.0,0.0372
1145.0,0.04627
1146.0,0.04985
1147.0,0.01482
1148.0,0.1016
1149.0,0.07864
1150.0,0.04057
1151.0,0.07133
1152.0,0.09073
1153.0,0.09069
1154.0,0.04465
1155.0,0.1205
1156.0,0.1069
1157.0,0.1229
1158.0,0.1215
1159.0,0.133
1160.0,0.1117
1161.0,0.1422
1162.0,0.1425
1163.0,0.2003
1164.0,0.169
1165.0,0.1567
1166.0,0.1577
1167.0,0.1731
1168.0,0.1744
1169.0,0.1794
1170.0,0.1973
1171.0,0.1922
1172.0,0.1971
1173.0,0.1969
1174.0,0.1351
1175.0,0.1935
1176.0,0.2157
1177.0,0.2051
1178.0,0.1499
1179.0,0.2176
1180.0,0.191
1181.0,0.1973
1182.0,0.1316
1183.0,0.1949
1184.0,0.1812
1185.0,0.1735
1186.0,0.2102
1187.0,0.1988
1188.0,0.1332
1189.0,0.1849
1190.0,0.2056
1191.0,0.1926
1192.0,0.2087
1193.0,0.1991
1194.0,0.2058
1195.0,0.1929
1196.0,0.1847
1197.0,0.2068
1198.0,0.1881
1199.0,0.1562
1200.0,0.1965
1201.0,0.1882
1202.0,0.1881
1203.0,0.1861
1204.0,0.1609
1205.0,0.1936
1206.0,0.2158
1207.0,0.1871
1208.0,0.1853
1209.0,0.1894
1210.0,0.1981
1211.0,0.1873
1212.0,0.1832
1213.0,0.2077
1214.0,0.1884
1215.0,0.1845
1216.0,0.2072
1217.0,0.201
1218.0,0.2055
1219.0,0.2026
1220.0,0.2058
1221.0,0.2082
1222.0,0.2025
1223.0,0.2003
1224.0,0.1984
1225.0,0.2068
1226.0,0.2087
1227.0,0.1907
1228.0,0.2102
1229.0,0.2087
1230.0,0.2048
1231.0,0.2119
1232.0,0.2106
1233.0,0.2017
1234.0,0.212
1235.0,0.2104
1236.0,0.2122
1237.0,0.2085
1238.0,0.2114
1239.0,0.2087
1240.0,0.2096
1241.0,0.2082
1242.0,0.2081
1243.0,0.2064
1244.0,0.2078
1245.0,0.2087
1246.0,0.2075
1247.0,0.2066
1248.0,0.2063
1249.0,0.2071
1250.0,0.2057
1251.0,0.2029
1252.0,0.2032
1253.0,0.201
1254.0,0.1986
1255.0,0.2028
1256.0,0.1961
1257.0,0.1948
1258.0,0.1993
1259.0,0.1905
1260.0,0.1917
1261.0,0.179
1262.0,0.1726
1263.0,0.1728
1264.0,0.1572
1265.0,0.1718
1266.0,0.1639
1267.0,0.1677
1268.0,0.1575
1269.0,0.0881
1270.0,0.1668
1271.0,0.1786
1272.0,0.1794
1273.0,0.1773
1274.0,0.1782
1275.0,0.1811
1276.0,0.1833
1277.0,0.185
1278.0,0.1893
1279.0,0.1875
1280.0,0.1852
1281.0,0.1771
1282.0,0.1712
1283.0,0.1843
1284.0,0.1886
1285.0,0.1899
1286.0,0.1928
1287.0,0.1892
1288.0,0.1894
1289.0,0.1822
1290.0,0.1878
1291.0,0.1906
1292.0,0.1768
1293.0,0.1864
1294.0,0.185
1295.0,0.1834
1296.0,0.1737
1297.0,0.1632
1298.0,0.1779
1299.0,0.1868
1300.0,0.1544
1301.0,0.1598
1302.0,0.1774
1303.0,0.1528
1304.0,0.1268
1305.0,0.1735
1306.0,0.1733
1307.0,0.1308
1308.0,0.1536
1309.0,0.1715
1310.0,0.1281
1311.0,0.1465
1312.0,0.1419
1313.0,0.1385
1314.0,0.1227
1315.0,0.1203
1316.0,0.1435
1317.0,0.1355
1318.0,0.1487
1319.0,0.112
1320.0,0.1094
1321.0,0.1289
1322.0,0.1294
1323.0,0.09389
1324.0,0.11
1325.0,0.1411
1326.0,0.1189
1327.0,0.1128
1328.0,0.09607
1329.0,0.06905
1330.0,0.09146
1331.0,0.05166
1332.0,0.0545
1333.0,0.0766
1334.0,0.06688
1335.0,0.09339
1336.0,0.07191
1337.0,0.06276
1338.0,0.06783
1339.0,0.06804
1340.0,0.0672
1341.0,0.06325
1342.0,0.06668
1343.0,0.04081
1344.0,0.02479
1345.0,0.03577
1346.0,0.01527
1347.0,0.0151
1348.0,0.0006987
1349.0,0.002748
1350.0,0.003046
1351.0,0.0005436
1352.0,0.000102
1353.0,3.713e-06
1354.0,1.627e-05
1355.0,6.243e-08
1356.0,1.781e-06
1357.0,2.725e-06
1358.0,7.622e-08
1359.0,5.414e-09
1360.0,2.843e-08
1361.0,9.998e-12
1362.0,1.783e-14
1363.0,3.098e-08
1364.0,1.297e-08
1365.0,3.508e-15
1366.0,1.572e-07
1367.0,7.42e-08
1368.0,1.157e-17
1369.0,4.759e-09
1370.0,1.844e-09
1371.0,8.019e-11
1372.0,4.128e-08
1373.0,1.209e-06
1374.0,7.305e-06
1375.0,1.279e-05
1376.0,1.488e-05
1377.0,6.466e-06
1378.0,6.91e-05
1379.0,2.718e-06
1380.0,3.28e-06
1381.0,7.536e-08
1382.0,3.465e-08
1383.0,4.347e-10
1384.0,4.848e-09
1385.0,4.371e-08
1386.0,2.586e-08
1387.0,6.274e-06
1388.0,1.313e-07
1389.0,2.913e-05
1390.0,2.466e-05
1391.0,1.58e-05
1392.0,9.697e-07
1393.0,5.888e-06
1394.0,1.934e-06
1395.0,1.098e-08
1396.0,1.68e-11
1397.0,2.118e-06
1398.0,7.481e-05
1399.0,4.818e-05
1400.0,5.317e-12
1401.0,3.375e-11
1402.0,0.000199
1403.0,0.0002313
1404.0,6.799e-05
1405.0,4.338e-09
1406.0,0.0001547
1407.0,1.56e-05
1408.0,0.0001299
1409.0,3.507e-05
1410.0,3.329e-05
1411.0,0.0002067
1412.0,0.0003097
1413.0,0.004254
1414.0,2.71e-05
1415.0,1.18e-05
1416.0,0.008557
1417.0,0.002131
1418.0,0.002296
1419.0,0.0003402
1420.0,0.001393
1421.0,0.001549
1422.0,0.01124
1423.0,0.002072
1424.0,0.00403
1425.0,0.005653
1426.0,0.007035
1427.0,0.01429
1428.0,0.0006348
1429.0,0.009959
1430.0,0.01889
1431.0,0.02123
1432.0,0.0004925
1433.0,0.01286
1434.0,0.00623
1435.0,0.005197
