interpolation:linear
wavelength,value
280.0,5.24e-21
280.5,1.612e-19
281.0,8.457e-19
281.5,5.118e-19
282.0,1.355e-18
282.5,3.496e-18
283.0,1.115e-17
283.5,1.816e-17
284.0,2.883e-16
284.5,8.243e-16
285.0,1.735e-15
285.5,8.742e-15
286.0,3.524e-14
286.5,1.567e-13
287.0,4.448e-13
287.5,1.683e-12
288.0,4.356e-12
288.5,1.5e-11
289.0,4.383e-11
289.5,1.423e-10
290.0,4.135e-10
290.5,8.715e-10
291.0,1.935e-09
291.5,5.758e-09
292.0,1.396e-08
292.5,2.154e-08
293.0,5.224e-08
293.5,1.511e-07
294.0,2.681e-07
294.5,3.5e-07
295.0,6.731e-07
295.5,1.835e-06
296.0,3.669e-06
296.5,5.329e-06
297.0,7.453e-06
297.5,2.105e-05
298.0,3.476e-05
298.5,3.631e-05
299.0,8.32e-05
299.5,0.0001481
300.0,0.0001699
300.5,0.0002577
301.0,0.0005063
301.5,0.0008817
302.0,0.0007959
302.5,0.001555
303.0,0.002792
303.5,0.003512
304.0,0.003296
304.5,0.004899
305.0,0.007375
305.5,0.008405
306.0,0.00812
306.5,0.01008
307.0,0.01482
307.5,0.01954
308.0,0.02061
308.5,0.02423
309.0,0.02376
309.5,0.02698
310.0,0.02702
310.5,0.04369
311.0,0.05469
311.5,0.05273
312.0,0.05238
312.5,0.06346
313.0,0.06867
313.5,0.06685
314.0,0.08312
314.5,0.07315
315.0,0.09601
315.5,0.08063
316.0,0.06998
316.5,0.09994
317.0,0.1241
317.5,0.1294
318.0,0.1006
318.5,0.1239
319.0,0.1465
319.5,0.1202
320.0,0.1454
320.5,0.1805
321.0,0.1595
321.5,0.1529
322.0,0.1643
322.5,0.1429
323.0,0.1416
323.5,0.1731
324.0,0.2019
324.5,0.2055
325.0,0.178
325.5,0.228
326.0,0.2785
326.5,0.278
327.0,0.2775
327.5,0.2684
328.0,0.24
328.5,0.2511
329.0,0.2994
329.5,0.3395
330.0,0.3428
330.5,0.2753
331.0,0.2808
331.5,0.2848
332.0,0.3067
332.5,0.3029
333.0,0.3023
333.5,0.2744
334.0,0.2813
334.5,0.3236
335.0,0.3036
335.5,0.3547
336.0,0.2454
336.5,0.2877
337.0,0.2364
337.5,0.2942
338.0,0.2866
338.5,0.3308
339.0,0.3275
339.5,0.3151
340.0,0.3704
340.5,0.3338
341.0,0.3256
341.5,0.299
342.0,0.3573
342.5,0.3344
343.0,0.3678
343.5,0.3464
344.0,0.2561
344.5,0.2587
345.0,0.3423
345.5,0.3496
346.0,0.2972
346.5,0.3365
347.0,0.3614
347.5,0.2922
348.0,0.3332
348.5,0.3331
349.0,0.309
349.5,0.3061
350.0,0.3786
350.5,0.3994
351.0,0.3569
351.5,0.3469
352.0,0.3727
352.5,0.2909
353.0,0.3665
353.5,0.3919
354.0,0.4069
354.5,0.4127
355.0,0.4114
355.5,0.3718
356.0,0.3891
356.5,0.3323
357.0,0.2746
357.5,0.3362
358.0,0.2665
358.5,0.2277
359.0,0.3186
359.5,0.4061
360.0,0.4305
360.5,0.3442
361.0,0.3138
361.5,0.3614
362.0,0.3127
362.5,0.4328
363.0,0.3889
363.5,0.3583
364.0,0.4383
364.5,0.3747
365.0,0.3817
365.5,0.4791
366.0,0.5078
366.5,0.4772
367.0,0.4648
367.5,0.4825
368.0,0.4223
368.5,0.4262
369.0,0.4604
369.5,0.4908
370.0,0.5233
370.5,0.4063
371.0,0.4342
371.5,0.5433
372.0,0.3607
372.5,0.4325
373.0,0.4401
373.5,0.2864
374.0,0.4163
374.5,0.3448
375.0,0.3352
375.5,0.5006
376.0,0.4151
376.5,0.4302
377.0,0.4556
377.5,0.5331
378.0,0.578
378.5,0.5464
379.0,0.451
379.5,0.412
380.0,0.4284
380.5,0.519
381.0,0.5203
381.5,0.4125
382.0,0.3664
382.5,0.3125
383.0,0.2894
383.5,0.2788
384.0,0.3076
384.5,0.4525
385.0,0.4488
385.5,0.4181
386.0,0.3581
386.5,0.4706
387.0,0.3911
387.5,0.4393
388.0,0.4057
388.5,0.4011
389.0,0.4331
389.5,0.5247
390.0,0.5267
390.5,0.4848
391.0,0.5708
391.5,0.5823
392.0,0.4905
392.5,0.4392
393.0,0.2445
393.5,0.1777
394.0,0.3617
394.5,0.46
395.0,0.5614
395.5,0.5704
396.0,0.4946
396.5,0.2892
397.0,0.2171
397.5,0.4416
398.0,0.6185
398.5,0.6394
399.0,0.6925
399.5,0.6904
400.0,0.717
401.0,0.7273
402.0,0.7676
403.0,0.7294
404.0,0.7184
405.0,0.7185
406.0,0.7071
407.0,0.6959
408.0,0.7232
409.0,0.7743
410.0,0.6768
411.0,0.7333
412.0,0.7878
413.0,0.7685
414.0,0.7781
415.0,0.7804
416.0,0.7943
417.0,0.7749
418.0,0.7608
419.0,0.771
420.0,0.7677
421.0,0.8034
422.0,0.7638
423.0,0.7462
424.0,0.7894
425.0,0.7881
426.0,0.7679
427.0,0.7537
428.0,0.7343
429.0,0.6958
430.0,0.609
431.0,0.6037
432.0,0.7797
433.0,0.7841
434.0,0.7282
435.0,0.7606
436.0,0.8572
437.0,0.8458
438.0,0.7704
439.0,0.7968
440.0,0.8223
441.0,0.8523
442.0,0.9142
443.0,0.8905
444.0,0.9099
445.0,0.8903
446.0,0.8498
447.0,0.9189
448.0,0.9332
449.0,0.9371
450.0,0.9635
451.0,0.9993
452.0,0.9629
453.0,0.9058
454.0,0.9457
455.0,0.9516
456.0,0.9743
457.0,0.9906
458.0,0.9568
459.0,0.9519
460.0,0.9545
461.0,0.9766
462.0,0.9842
463.0,0.9775
464.0,0.9614
465.0,0.9494
466.0,0.9587
467.0,0.9412
468.0,0.9523
469.0,0.9573
470.0,0.9268
471.0,0.9257
472.0,0.9754
473.0,0.9628
474.0,0.9642
475.0,0.9724
476.0,0.9433
477.0,0.9459
478.0,0.9722
479.0,0.9664
480.0,0.9683
481.0,0.9864
482.0,0.9916
483.0,0.9797
484.0,0.9597
485.0,0.9144
486.0,0.7994
487.0,0.8378
488.0,0.9192
489.0,0.9221
490.0,0.9701
491.0,0.9534
492.0,0.9004
493.0,0.9299
494.0,0.9392
495.0,0.9472
496.0,0.9531
497.0,0.9679
498.0,0.9226
499.0,0.9344
500.0,0.9072
501.0,0.8905
502.0,0.8779
503.0,0.9136
504.0,0.8902
505.0,0.9223
506.0,0.9521
507.0,0.906
508.0,0.8778
509.0,0.9025
510.0,0.8978
511.0,0.9219
512.0,0.9319
513.0,0.8821
514.0,0.876
515.0,0.8673
516.0,0.8652
517.0,0.7688
518.0,0.8083
519.0,0.8478
520.0,0.8786
521.0,0.8869
522.0,0.8877
523.0,0.8717
524.0,0.9029
525.0,0.9135
526.0,0.8726
527.0,0.8222
528.0,0.8696
529.0,0.9166
530.0,0.9034
531.0,0.9168
532.0,0.8853
533.0,0.8593
534.0,0.8848
535.0,0.9041
536.0,0.9124
537.0,0.8764
538.0,0.8919
539.0,0.8844
540.0,0.848
541.0,0.8535
542.0,0.8802
543.0,0.871
544.0,0.8861
545.0,0.8833
546.0,0.8871
547.0,0.8868
548.0,0.8762
549.0,0.8789
550.0,0.8893
551.0,0.8786
552.0,0.8847
553.0,0.8688
554.0,0.8896
555.0,0.8914
556.0,0.8798
557.0,0.8524
558.0,0.846
559.0,0.8301
560.0,0.8405
561.0,0.8513
562.0,0.8451
563.0,0.8682
564.0,0.8445
565.0,0.8371
566.0,0.8248
567.0,0.8404
568.0,0.8327
569.0,0.8127
570.0,0.8125
571.0,0.8077
572.0,0.8269
573.0,0.8357
574.0,0.833
575.0,0.8173
576.0,0.8099
577.0,0.8187
578.0,0.8065
579.0,0.8099
580.0,0.8255
581.0,0.8299
582.0,0.8457
583.0,0.8479
584.0,0.8554
585.0,0.8345
586.0,0.8174
587.0,0.8352
588.0,0.8145
589.0,0.7209
590.0,0.754
591.0,0.7983
592.0,0.7879
593.0,0.7999
594.0,0.7942
595.0,0.7744
596.0,0.8055
597.0,0.7966
598.0,0.7948
599.0,0.7955
600.0,0.7969
601.0,0.7905
602.0,0.7851
603.0,0.7982
604.0,0.8114
605.0,0.8073
606.0,0.804
607.0,0.812
608.0,0.8031
609.0,0.8046
610.0,0.7989
611.0,0.8031
612.0,0.8008
613.0,0.7907
614.0,0.78
615.0,0.797
616.0,0.7708
617.0,0.7693
618.0,0.7989
619.0,0.7908
620.0,0.7959
621.0,0.7966
622.0,0.7872
623.0,0.7752
624.0,0.7619
625.0,0.7602
626.0,0.7715
627.0,0.7799
628.0,0.7267
629.0,0.7609
630.0,0.7433
631.0,0.7607
632.0,0.7517
633.0,0.7748
634.0,0.7674
635.0,0.7795
636.0,0.7693
637.0,0.782
638.0,0.7896
639.0,0.7808
640.0,0.7733
641.0,0.7729
642.0,0.7695
643.0,0.7798
644.0,0.7774
645.0,0.7786
646.0,0.7602
647.0,0.7507
648.0,0.7514
649.0,0.7368
650.0,0.741
651.0,0.7732
652.0,0.7404
653.0,0.763
654.0,0.7545
655.0,0.7261
656.0,0.6438
657.0,0.6611
658.0,0.7411
659.0,0.7465
660.0,0.7497
661.0,0.755
662.0,0.7564
663.0,0.7415
664.0,0.7504
665.0,0.7512
666.0,0.7518
667.0,0.7512
668.0,0.7516
669.0,0.7632
670.0,0.76
671.0,0.7598
672.0,0.7533
673.0,0.7647
674.0,0.7619
675.0,0.755
676.0,0.7602
677.0,0.7527
678.0,0.7548
679.0,0.7427
680.0,0.7486
681.0,0.7437
682.0,0.7428
683.0,0.7413
684.0,0.7376
685.0,0.744
686.0,0.7395
687.0,0.4833
688.0,0.57
689.0,0.5722
690.0,0.6014
691.0,0.6344
692.0,0.6586
693.0,0.6531
694.0,0.6477
695.0,0.6754
696.0,0.6764
697.0,0.719
698.0,0.7078
699.0,0.6901
700.0,0.6817
701.0,0.6746
702.0,0.6795
703.0,0.6808
704.0,0.703
705.0,0.7041
706.0,0.7037
707.0,0.7043
708.0,0.7058
709.0,0.7071
710.0,0.7069
711.0,0.706
712.0,0.7041
713.0,0.6968
714.0,0.6995
715.0,0.6771
716.0,0.6774
717.0,0.5847
718.0,0.5366
719.0,0.4913
720.0,0.5144
721.0,0.5696
722.0,0.6535
723.0,0.6074
724.0,0.5461
725.0,0.537
726.0,0.5623
727.0,0.571
728.0,0.5355
729.0,0.5566
730.0,0.5889
731.0,0.5631
732.0,0.6034
733.0,0.6398
734.0,0.6552
735.0,0.6415
736.0,0.6407
737.0,0.6432
738.0,0.6538
739.0,0.641
740.0,0.6579
741.0,0.6515
742.0,0.6522
743.0,0.6688
744.0,0.667
745.0,0.6672
746.0,0.6703
747.0,0.6718
748.0,0.6704
749.0,0.6627
750.0,0.6623
751.0,0.6556
752.0,0.6585
753.0,0.6618
754.0,0.6633
755.0,0.6595
756.0,0.6592
757.0,0.6602
758.0,0.652
759.0,0.6383
760.0,0.09822
761.0,0.05001
762.0,0.3172
763.0,0.1531
764.0,0.2349
765.0,0.3172
766.0,0.3939
767.0,0.5017
768.0,0.5829
769.0,0.596
770.0,0.6172
771.0,0.6227
772.0,0.6241
773.0,0.6285
774.0,0.6255
775.0,0.6208
776.0,0.6283
777.0,0.62
778.0,0.6163
779.0,0.6168
780.0,0.6133
781.0,0.614
782.0,0.6178
783.0,0.6071
784.0,0.61
785.0,0.6055
786.0,0.6121
787.0,0.601
788.0,0.5934
789.0,0.5931
790.0,0.5768
791.0,0.5823
792.0,0.5781
793.0,0.5687
794.0,0.579
795.0,0.5886
796.0,0.5698
797.0,0.5705
798.0,0.5878
799.0,0.5839
800.0,0.5736
801.0,0.5717
802.0,0.57
803.0,0.5656
804.0,0.5664
805.0,0.5649
806.0,0.5811
807.0,0.574
808.0,0.5746
809.0,0.5635
810.0,0.5587
811.0,0.559
812.0,0.5425
813.0,0.5309
814.0,0.4654
815.0,0.4626
816.0,0.4304
817.0,0.4384
818.0,0.4216
819.0,0.4729
820.0,0.4448
821.0,0.5219
822.0,0.5067
823.0,0.3413
824.0,0.4912
825.0,0.5128
826.0,0.4927
827.0,0.5207
828.0,0.4395
829.0,0.4899
830.0,0.4833
831.0,0.485
832.0,0.4698
833.0,0.5008
834.0,0.4824
835.0,0.5314
836.0,0.5077
837.0,0.533
838.0,0.5159
839.0,0.525
840.0,0.5366
841.0,0.5288
842.0,0.5303
843.0,0.5303
844.0,0.5228
845.0,0.5407
846.0,0.5384
847.0,0.5285
848.0,0.525
849.0,0.5101
850.0,0.4887
851.0,0.5173
852.0,0.5137
853.0,0.4946
854.0,0.427
855.0,0.4693
856.0,0.5127
857.0,0.5243
858.0,0.5204
859.0,0.5209
860.0,0.5219
861.0,0.519
862.0,0.5272
863.0,0.5396
864.0,0.5127
865.0,0.5082
866.0,0.457
867.0,0.4769
868.0,0.5189
869.0,0.5082
870.0,0.5227
871.0,0.5156
872.0,0.5137
873.0,0.5127
874.0,0.5066
875.0,0.4963
876.0,0.5015
877.0,0.5066
878.0,0.512
879.0,0.5042
880.0,0.4934
881.0,0.4859
882.0,0.4963
883.0,0.498
884.0,0.4957
885.0,0.4994
886.0,0.4756
887.0,0.481
888.0,0.4879
889.0,0.4937
890.0,0.4892
891.0,0.4886
892.0,0.474
893.0,0.4586
894.0,0.4414
895.0,0.4156
896.0,0.391
897.0,0.334
898.0,0.3655
899.0,0.2758
900.0,0.3754
901.0,0.2892
902.0,0.3423
903.0,0.3447
904.0,0.438
905.0,0.4224
906.0,0.3948
907.0,0.3179
908.0,0.3247
909.0,0.353
910.0,0.3098
911.0,0.3317
912.0,0.3472
913.0,0.3143
914.0,0.312
915.0,0.3383
916.0,0.2858
917.0,0.3653
918.0,0.2929
919.0,0.3726
920.0,0.3779
921.0,0.3932
922.0,0.3497
923.0,0.3799
924.0,0.3582
925.0,0.3504
926.0,0.3541
927.0,0.3982
928.0,0.2869
929.0,0.2604
930.0,0.2023
931.0,0.192
932.0,0.1357
933.0,0.109
934.0,0.05705
935.0,0.1126
936.0,0.06858
937.0,0.06932
938.0,0.08593
939.0,0.1859
940.0,0.2255
941.0,0.1678
942.0,0.1957
943.0,0.1268
944.0,0.1353
945.0,0.1735
946.0,0.08565
947.0,0.1736
948.0,0.1271
949.0,0.2349
950.0,0.06131
951.0,0.2318
952.0,0.1211
953.0,0.1586
954.0,0.1971
955.0,0.1607
956.0,0.1577
957.0,0.1209
958.0,0.2269
959.0,0.1773
960.0,0.1988
961.0,0.2254
962.0,0.213
963.0,0.2476
964.0,0.2262
965.0,0.2468
966.0,0.2464
967.0,0.2451
968.0,0.3358
969.0,0.3501
970.0,0.3206
971.0,0.3701
972.0,0.3534
973.0,0.3045
974.0,0.2886
975.0,0.3008
976.0,0.2839
977.0,0.3265
978.0,0.3088
979.0,0.3244
980.0,0.3044
981.0,0.3681
982.0,0.3508
983.0,0.3361
984.0,0.3806
985.0,0.3495
986.0,0.3881
987.0,0.3796
988.0,0.3789
989.0,0.3875
990.0,0.3767
991.0,0.3885
992.0,0.3909
993.0,0.3812
994.0,0.3908
995.0,0.3905
996.0,0.3886
997.0,0.3893
998.0,0.3874
999.0,0.386
1000.0,0.3831
1001.0,0.3881
1002.0,0.3765
1003.0,0.3812
1004.0,0.3716
1005.0,0.3583
1006.0,0.3722
1007.0,0.3801
1008.0,0.3779
1009.0,0.3757
1010.0,0.374
1011.0,0.3782
1012.0,0.3748
1013.0,0.3774
1014.0,0.3747
1015.0,0.3722
1016.0,0.3705
1017.0,0.3714
1018.0,0.3701
1019.0,0.3619
1020.0,0.3681
1021.0,0.3677
1022.0,0.3647
1023.0,0.3685
1024.0,0.3634
1025.0,0.3684
1026.0,0.3667
1027.0,0.3659
1028.0,0.3651
1029.0,0.3608
1030.0,0.3634
1031.0,0.3619
1032.0,0.3609
1033.0,0.3554
1034.0,0.3554
1035.0,0.3565
1036.0,0.3584
1037.0,0.3525
1038.0,0.3541
1039.0,0.3539
1040.0,0.3524
1041.0,0.3538
1042.0,0.3513
1043.0,0.3502
1044.0,0.3514
1045.0,0.3466
1046.0,0.3428
1047.0,0.3458
1048.0,0.3477
1049.0,0.3464
1050.0,0.3448
1051.0,0.3443
1052.0,0.3428
1053.0,0.3401
1054.0,0.3408
1055.0,0.3409
1056.0,0.3396
1057.0,0.3385
1058.0,0.3302
1059.0,0.3305
1060.0,0.3299
1061.0,0.3295
1062.0,0.3312
1063.0,0.3279
1064.0,0.3318
1065.0,0.3292
1066.0,0.3228
1067.0,0.327
1068.0,0.3197
1069.0,0.3099
1070.0,0.3204
1071.0,0.3257
1072.0,0.3217
1073.0,0.3171
1074.0,0.3256
1075.0,0.3083
1076.0,0.3253
1077.0,0.3189
1078.0,0.3127
1079.0,0.3203
1080.0,0.314
1081.0,0.3035
1082.0,0.3092
1083.0,0.3103
1084.0,0.3025
1085.0,0.3148
1086.0,0.2859
1087.0,0.2961
1088.0,0.3098
1089.0,0.2994
1090.0,0.2923
1091.0,0.3086
1092.0,0.308
1093.0,0.2585
1094.0,0.2815
1095.0,0.2697
1096.0,0.2574
1097.0,0.3009
1098.0,0.2531
1099.0,0.2644
1100.0,0.2447
1101.0,0.2481
1102.0,0.2362
1103.0,0.2334
1104.0,0.2338
1105.0,0.2581
1106.0,0.1931
1107.0,0.2443
1108.0,0.2045
1109.0,0.2054
1110.0,0.2418
1111.0,0.1605
1112.0,0.204
1113.0,0.1262
1114.0,0.1414
1115.0,0.1171
1116.0,0.09133
1117.0,0.03128
1118.0,0.1001
1119.0,0.04778
1120.0,0.05999
1121.0,0.08076
1122.0,0.03237
1123.0,0.0543
1124.0,0.0458
1125.0,0.06022
1126.0,0.01937
1127.0,0.06808
1128.0,0.03897
1129.0,0.04159
1130.0,0.02675
1131.0,0.1334
1132.0,0.1038
1133.0,0.06348
1134.0,0.01496
1135.0,0.00568
1136.0,0.05213
1137.0,0.1303
1138.0,0.09131
1139.0,0.1408
1140.0,0.1159
1141.0,0.08681
1142.0,0.1008
1143.0,0.145
1144.0,0.04847
1145.0,0.06127
1146.0,0.06605
1147.0,0.02159
1148.0,0.1254
1149.0,0.09877
1150.0,0.05238
1151.0,0.09058
1152.0,0.1131
1153.0,0.1115
1154.0,0.05918
1155.0,0.1468
1156.0,0.1313
1157.0,0.1488
1158.0,0.1471
1159.0,0.1598
1160.0,0.1354
1161.0,0.1692
1162.0,0.1699
1163.0,0.2332
1164.0,0.1987
1165.0,0.1861
1166.0,0.1858
1167.0,0.203
1168.0,0.205
1169.0,0.2103
1170.0,0.2296
1171.0,0.2238
1172.0,0.2284
1173.0,0.2291
1174.0,0.1611
1175.0,0.2243
1176.0,0.2478
1177.0,0.2371
1178.0,0.1762
1179.0,0.2499
1180.0,0.2217
1181.0,0.2289
1182.0,0.156
1183.0,0.2257
1184.0,0.2108
1185.0,0.2029
1186.0,0.2424
1187.0,0.2303
1188.0,0.1584
1189.0,0.2144
1190.0,0.237
1191.0,0.224
1192.0,0.2404
1193.0,0.23
1194.0,0.2373
1195.0,0.2237
1196.0,0.2151
1197.0,0.2378
1198.0,0.2171
1199.0,0.1832
1200.0,0.227
1201.0,0.2185
1202.0,0.2176
1203.0,0.2156
1204.0,0.1878
1205.0,0.2231
1206.0,0.2471
1207.0,0.2168
1208.0,0.2139
1209.0,0.2184
1210.0,0.2278
1211.0,0.2164
1212.0,0.2131
1213.0,0.2387
1214.0,0.2185
1215.0,0.2143
1216.0,0.238
1217.0,0.2314
1218.0,0.236
1219.0,0.233
1220.0,0.2363
1221.0,0.2388
1222.0,0.2324
1223.0,0.2302
1224.0,0.2285
1225.0,0.2372
1226.0,0.239
1227.0,0.2198
1228.0,0.2403
1229.0,0.239
1230.0,0.2348
1231.0,0.2419
1232.0,0.2405
1233.0,0.2317
1234.0,0.2418
1235.0,0.2402
1236.0,0.242
1237.0,0.2384
1238.0,0.2412
1239.0,0.2381
1240.0,0.2391
1241.0,0.2378
1242.0,0.2374
1243.0,0.2355
1244.0,0.2371
1245.0,0.2381
1246.0,0.2368
1247.0,0.2358
1248.0,0.2356
1249.0,0.2364
1250.0,0.2349
1251.0,0.2318
1252.0,0.2319
1253.0,0.2299
1254.0,0.2274
1255.0,0.2317
1256.0,0.2248
1257.0,0.2235
1258.0,0.228
1259.0,0.2192
1260.0,0.2204
1261.0,0.2073
1262.0,0.2007
1263.0,0.2011
1264.0,0.1848
1265.0,0.1998
1266.0,0.1918
1267.0,0.1955
1268.0,0.1848
1269.0,0.1111
1270.0,0.1946
1271.0,0.2067
1272.0,0.2075
1273.0,0.2052
1274.0,0.2059
1275.0,0.2091
1276.0,0.2112
1277.0,0.2128
1278.0,0.2172
1279.0,0.2152
1280.0,0.2125
1281.0,0.2029
1282.0,0.1957
1283.0,0.2107
1284.0,0.2157
1285.0,0.2172
1286.0,0.2202
1287.0,0.2166
1288.0,0.2166
1289.0,0.2093
1290.0,0.2147
1291.0,0.2178
1292.0,0.2038
1293.0,0.2134
1294.0,0.2118
1295.0,0.2106
1296.0,0.2005
1297.0,0.1893
1298.0,0.2046
1299.0,0.2137
1300.0,0.1795
1301.0,0.1853
1302.0,0.2039
1303.0,0.1773
1304.0,0.1499
1305.0,0.1996
1306.0,0.1996
1307.0,0.1536
1308.0,0.1778
1309.0,0.1979
1310.0,0.1506
1311.0,0.1702
1312.0,0.1653
1313.0,0.1619
1314.0,0.1444
1315.0,0.1422
1316.0,0.1672
1317.0,0.1582
1318.0,0.1726
1319.0,0.1332
1320.0,0.1294
1321.0,0.1513
1322.0,0.1525
1323.0,0.1133
1324.0,0.1307
1325.0,0.1647
1326.0,0.1405
1327.0,0.1337
1328.0,0.1148
1329.0,0.0849
1330.0,0.1112
1331.0,0.06549
1332.0,0.06818
1333.0,0.09527
1334.0,0.08154
1335.0,0.1129
1336.0,0.08839
1337.0,0.07773
1338.0,0.08411
1339.0,0.08398
1340.0,0.08214
1341.0,0.07914
1342.0,0.08322
1343.0,0.05424
1344.0,0.03263
1345.0,0.04713
1346.0,0.0221
1347.0,0.02224
1348.0,0.001268
1349.0,0.004726
1350.0,0.005038
1351.0,0.00109
1352.0,0.0002585
1353.0,1.158e-05
1354.0,4.36e-05
1355.0,2.669e-07
1356.0,5.611e-06
1357.0,8.573e-06
1358.0,3.197e-07
1359.0,3.268e-08
1360.0,1.358e-07
1361.0,9.778e-11
1362.0,2.235e-13
1363.0,1.716e-07
1364.0,7.069e-08
1365.0,6.153e-14
1366.0,7.933e-07
1367.0,3.392e-07
1368.0,2.973e-16
1369.0,2.618e-08
1370.0,1.182e-08
1371.0,6.047e-10
1372.0,1.871e-07
1373.0,4.351e-06
1374.0,2.23e-05
1375.0,4.022e-05
1376.0,3.946e-05
1377.0,1.77e-05
1378.0,0.0001804
1379.0,7.426e-06
1380.0,1.006e-05
1381.0,2.489e-07
1382.0,1.645e-07
1383.0,2.289e-09
1384.0,2.855e-08
1385.0,1.724e-07
1386.0,1.377e-07
1387.0,2.173e-05
1388.0,4.318e-07
1389.0,8.246e-05
1390.0,7.073e-05
1391.0,4.632e-05
1392.0,2.928e-06
1393.0,1.638e-05
1394.0,7.204e-06
1395.0,4.763e-08
1396.0,1.497e-10
1397.0,6.276e-06
1398.0,0.0002004
1399.0,0.0001276
1400.0,5.749e-11
1401.0,2.812e-10
1402.0,0.0004092
1403.0,0.0005006
1404.0,0.0001507
1405.0,2.149e-08
1406.0,0.0003744
1407.0,3.436e-05
1408.0,0.0003089
1409.0,9.561e-05
1410.0,8.105e-05
1411.0,0.0004426
1412.0,0.0006212
1413.0,0.007198
1414.0,6.465e-05
1415.0,2.988e-05
1416.0,0.01282
1417.0,0.003552
1418.0,0.003976
1419.0,0.0006039
1420.0,0.002422
1421.0,0.002634
1422.0,0.0168
1423.0,0.003173
1424.0,0.006043
1425.0,0.008726
1426.0,0.01031
1427.0,0.01987
1428.0,0.001177
1429.0,0.01439
1430.0,0.02574
1431.0,0.02859
1432.0,0.0009204
1433.0,0.01776
1434.0,0.008823
1435.0,0.008109
1436.0,0.01674
1437.0,0.01286
