interpolation:linear
wavelength,value
280.0,1.0070000000000001e-20
280.5,3.024e-19
281.0,1.574e-18
281.5,4.59e-19
282.0,1.501e-18
282.5,4.002e-18
283.0,1.295e-17
283.5,2.119e-17
284.0,3.36e-16
284.5,9.568e-16
285.0,1.854e-15
285.5,9.872e-15
286.0,4.034e-14
286.5,1.824e-13
287.0,5.214e-13
287.5,1.984e-12
288.0,5.26e-12
288.5,1.9e-11
289.0,5.796e-11
289.5,1.961e-10
290.0,5.882e-10
290.5,1.272e-09
291.0,2.911e-09
291.5,9.138e-09
292.0,2.213e-08
292.5,3.502e-08
293.0,8.789e-08
293.5,2.677e-07
294.0,4.951e-07
294.5,6.63e-07
295.0,1.33e-06
295.5,3.637e-06
296.0,7.195e-06
296.5,1.032e-05
297.0,1.427e-05
297.5,3.954e-05
298.0,6.409e-05
298.5,6.594e-05
299.0,0.0001487
299.5,0.0002567
300.0,0.0002892
300.5,0.0004299
301.0,0.0008138
301.5,0.001361
302.0,0.001199
302.5,0.002316
303.0,0.004094
303.5,0.0051
304.0,0.004753
304.5,0.006935
305.0,0.01018
305.5,0.01142
306.0,0.01097
306.5,0.01348
307.0,0.01941
307.5,0.02507
308.0,0.02636
308.5,0.03069
309.0,0.02993
309.5,0.03357
310.0,0.03341
310.5,0.05386
311.0,0.06708
311.5,0.06454
312.0,0.06343
312.5,0.0763
313.0,0.08225
313.5,0.08034
314.0,0.09904
314.5,0.08618
315.0,0.1129
315.5,0.0953
316.0,0.08195
316.5,0.1161
317.0,0.1442
317.5,0.1507
318.0,0.1165
318.5,0.142
319.0,0.167
319.5,0.1382
320.0,0.1673
320.5,0.2056
321.0,0.1801
321.5,0.1724
322.0,0.187
322.5,0.1626
323.0,0.16
323.5,0.1945
324.0,0.2266
324.5,0.2312
325.0,0.201
325.5,0.256
326.0,0.3122
326.5,0.3107
327.0,0.3104
327.5,0.3007
328.0,0.2701
328.5,0.2809
329.0,0.3336
329.5,0.3777
330.0,0.3818
330.5,0.3076
331.0,0.3141
331.5,0.3177
332.0,0.3409
332.5,0.3361
333.0,0.3358
333.5,0.3055
334.0,0.3133
334.5,0.3594
335.0,0.3366
335.5,0.3931
336.0,0.272
336.5,0.3191
337.0,0.2625
337.5,0.3268
338.0,0.3176
338.5,0.3665
339.0,0.3627
339.5,0.349
340.0,0.4102
340.5,0.3696
341.0,0.3605
341.5,0.331
342.0,0.3955
342.5,0.3701
343.0,0.4071
343.5,0.3834
344.0,0.2833
344.5,0.2862
345.0,0.3787
345.5,0.3867
346.0,0.3286
346.5,0.3721
347.0,0.3996
347.5,0.3231
348.0,0.3683
348.5,0.3682
349.0,0.3415
349.5,0.3382
350.0,0.4183
350.5,0.4413
351.0,0.3943
351.5,0.3833
352.0,0.4117
352.5,0.3213
353.0,0.4047
353.5,0.4327
354.0,0.4493
354.5,0.4557
355.0,0.4542
355.5,0.4104
356.0,0.4294
356.5,0.3667
357.0,0.303
357.5,0.371
358.0,0.294
358.5,0.2513
359.0,0.3515
359.5,0.448
360.0,0.475
360.5,0.3797
361.0,0.3461
361.5,0.3986
362.0,0.3447
362.5,0.4771
363.0,0.4286
363.5,0.3948
364.0,0.4829
364.5,0.4128
365.0,0.4205
365.5,0.5278
366.0,0.5593
366.5,0.5256
367.0,0.5119
367.5,0.5313
368.0,0.465
368.5,0.4693
369.0,0.5068
369.5,0.5403
370.0,0.576
370.5,0.4471
371.0,0.4778
371.5,0.5979
372.0,0.3968
372.5,0.4759
373.0,0.4841
373.5,0.3151
374.0,0.4578
374.5,0.3792
375.0,0.3687
375.5,0.5505
376.0,0.4564
376.5,0.473
377.0,0.5009
377.5,0.586
378.0,0.6353
378.5,0.6006
379.0,0.4957
379.5,0.4528
380.0,0.4709
380.5,0.5704
381.0,0.5717
381.5,0.4532
382.0,0.4026
382.5,0.3432
383.0,0.3178
383.5,0.3061
384.0,0.3377
384.5,0.4968
385.0,0.4928
385.5,0.459
386.0,0.3932
386.5,0.5165
387.0,0.4292
387.5,0.4822
388.0,0.4452
388.5,0.4402
389.0,0.4752
389.5,0.5757
390.0,0.5778
390.5,0.5318
391.0,0.6261
391.5,0.6387
392.0,0.538
392.5,0.4817
393.0,0.2681
393.5,0.1949
394.0,0.3966
394.5,0.5043
395.0,0.6155
395.5,0.6253
396.0,0.5422
396.5,0.317
397.0,0.2379
397.5,0.4839
398.0,0.6777
398.5,0.7006
399.0,0.7587
399.5,0.7563
400.0,0.7855
401.0,0.7972
402.0,0.8413
403.0,0.7993
404.0,0.7871
405.0,0.7872
406.0,0.7745
407.0,0.7622
408.0,0.792
409.0,0.8479
410.0,0.741
411.0,0.8027
412.0,0.8623
413.0,0.841
414.0,0.8514
415.0,0.8538
416.0,0.8688
417.0,0.8476
418.0,0.832
419.0,0.8431
420.0,0.8395
421.0,0.8783
422.0,0.8349
423.0,0.8157
424.0,0.8628
425.0,0.8613
426.0,0.8391
427.0,0.8235
428.0,0.8022
429.0,0.7599
430.0,0.6651
431.0,0.6593
432.0,0.8513
433.0,0.8561
434.0,0.795
435.0,0.8303
436.0,0.9356
437.0,0.9231
438.0,0.8406
439.0,0.8696
440.0,0.8973
441.0,0.9298
442.0,0.9973
443.0,0.9715
444.0,0.9926
445.0,0.9712
446.0,0.9268
447.0,1.002
448.0,1.018
449.0,1.022
450.0,1.05
451.0,1.089
452.0,1.049
453.0,0.9871
454.0,1.03
455.0,1.037
456.0,1.062
457.0,1.079
458.0,1.043
459.0,1.037
460.0,1.04
461.0,1.064
462.0,1.072
463.0,1.065
464.0,1.047
465.0,1.034
466.0,1.044
467.0,1.025
468.0,1.037
469.0,1.042
470.0,1.009
471.0,1.008
472.0,1.062
473.0,1.048
474.0,1.05
475.0,1.059
476.0,1.027
477.0,1.03
478.0,1.059
479.0,1.052
480.0,1.054
481.0,1.074
482.0,1.079
483.0,1.066
484.0,1.044
485.0,0.995
486.0,0.8698
487.0,0.9115
488.0,1.0
489.0,1.003
490.0,1.055
491.0,1.037
492.0,0.9794
493.0,1.011
494.0,1.022
495.0,1.03
496.0,1.037
497.0,1.053
498.0,1.003
499.0,1.016
500.0,0.9868
501.0,0.9688
502.0,0.9553
503.0,0.9944
504.0,0.9696
505.0,1.004
506.0,1.036
507.0,0.9862
508.0,0.9553
509.0,0.982
510.0,0.9767
511.0,1.003
512.0,1.014
513.0,0.9594
514.0,0.9528
515.0,0.9433
516.0,0.941
517.0,0.8361
518.0,0.879
519.0,0.922
520.0,0.9556
521.0,0.9647
522.0,0.9655
523.0,0.9482
524.0,0.9822
525.0,0.9939
526.0,0.9495
527.0,0.8948
528.0,0.9464
529.0,0.9977
530.0,0.9834
531.0,0.998
532.0,0.9637
533.0,0.9355
534.0,0.9631
535.0,0.9841
536.0,0.9931
537.0,0.9539
538.0,0.9707
539.0,0.9625
540.0,0.9228
541.0,0.9291
542.0,0.9583
543.0,0.9481
544.0,0.9646
545.0,0.9616
546.0,0.9659
547.0,0.9654
548.0,0.9538
549.0,0.9567
550.0,0.968
551.0,0.9563
552.0,0.9629
553.0,0.9457
554.0,0.9683
555.0,0.9703
556.0,0.9577
557.0,0.928
558.0,0.9211
559.0,0.9039
560.0,0.9153
561.0,0.9272
562.0,0.9205
563.0,0.9458
564.0,0.9201
565.0,0.9122
566.0,0.8989
567.0,0.916
568.0,0.908
569.0,0.8868
570.0,0.8865
571.0,0.881
572.0,0.9025
573.0,0.9121
574.0,0.9093
575.0,0.8924
576.0,0.8842
577.0,0.8938
578.0,0.8803
579.0,0.8836
580.0,0.9002
581.0,0.9046
582.0,0.9216
583.0,0.9237
584.0,0.9316
585.0,0.9088
586.0,0.8901
587.0,0.9097
588.0,0.8881
589.0,0.7877
590.0,0.8237
591.0,0.8711
592.0,0.8604
593.0,0.8727
594.0,0.8668
595.0,0.8458
596.0,0.8784
597.0,0.869
598.0,0.8666
599.0,0.8673
600.0,0.8684
601.0,0.8611
602.0,0.8553
603.0,0.8693
604.0,0.8837
605.0,0.8791
606.0,0.8754
607.0,0.884
608.0,0.8741
609.0,0.8756
610.0,0.8693
611.0,0.8738
612.0,0.8712
613.0,0.8602
614.0,0.8484
615.0,0.8668
616.0,0.8382
617.0,0.8364
618.0,0.8686
619.0,0.8598
620.0,0.8652
621.0,0.8661
622.0,0.856
623.0,0.8431
624.0,0.8285
625.0,0.8267
626.0,0.8389
627.0,0.8485
628.0,0.7942
629.0,0.829
630.0,0.81
631.0,0.8276
632.0,0.8176
633.0,0.8422
634.0,0.8339
635.0,0.8467
636.0,0.8354
637.0,0.849
638.0,0.857
639.0,0.8474
640.0,0.8391
641.0,0.8385
642.0,0.8346
643.0,0.8458
644.0,0.843
645.0,0.8444
646.0,0.8249
647.0,0.8156
648.0,0.8164
649.0,0.8007
650.0,0.8039
651.0,0.8386
652.0,0.8044
653.0,0.8275
654.0,0.8182
655.0,0.7881
656.0,0.6982
657.0,0.717
658.0,0.8033
659.0,0.809
660.0,0.8123
661.0,0.818
662.0,0.8198
663.0,0.8035
664.0,0.8129
665.0,0.8134
666.0,0.814
667.0,0.8132
668.0,0.8135
669.0,0.826
670.0,0.8224
671.0,0.8222
672.0,0.8151
673.0,0.8274
674.0,0.8242
675.0,0.8167
676.0,0.8223
677.0,0.8141
678.0,0.8164
679.0,0.8032
680.0,0.8096
681.0,0.8043
682.0,0.8032
683.0,0.8017
684.0,0.7977
685.0,0.8045
686.0,0.7997
687.0,0.5386
688.0,0.6276
689.0,0.6297
690.0,0.6593
691.0,0.6925
692.0,0.7167
693.0,0.7109
694.0,0.705
695.0,0.7332
696.0,0.7342
697.0,0.778
698.0,0.7659
699.0,0.7484
700.0,0.7394
701.0,0.7321
702.0,0.7369
703.0,0.7382
704.0,0.7614
705.0,0.7625
706.0,0.7617
707.0,0.7622
708.0,0.7639
709.0,0.7647
710.0,0.7648
711.0,0.7636
712.0,0.7612
713.0,0.7537
714.0,0.7565
715.0,0.7329
716.0,0.7334
717.0,0.6389
718.0,0.5872
719.0,0.5382
720.0,0.564
721.0,0.6209
722.0,0.7085
723.0,0.6605
724.0,0.5962
725.0,0.587
726.0,0.6143
727.0,0.6224
728.0,0.5856
729.0,0.6066
730.0,0.6419
731.0,0.6144
732.0,0.6562
733.0,0.6936
734.0,0.7098
735.0,0.6952
736.0,0.6943
737.0,0.6971
738.0,0.7072
739.0,0.6932
740.0,0.7111
741.0,0.7039
742.0,0.7045
743.0,0.7223
744.0,0.7202
745.0,0.7203
746.0,0.7236
747.0,0.7252
748.0,0.7236
749.0,0.7154
750.0,0.7149
751.0,0.7077
752.0,0.7107
753.0,0.7143
754.0,0.7159
755.0,0.7119
756.0,0.7116
757.0,0.7126
758.0,0.7037
759.0,0.6898
760.0,0.1209
761.0,0.06449
762.0,0.3593
763.0,0.1828
764.0,0.272
765.0,0.3594
766.0,0.4384
767.0,0.5504
768.0,0.6329
769.0,0.6457
770.0,0.6671
771.0,0.6722
772.0,0.6736
773.0,0.6783
774.0,0.675
775.0,0.6698
776.0,0.678
777.0,0.669
778.0,0.665
779.0,0.6655
780.0,0.6618
781.0,0.6625
782.0,0.6666
783.0,0.655
784.0,0.6581
785.0,0.6533
786.0,0.6605
787.0,0.6492
788.0,0.6413
789.0,0.6411
790.0,0.6244
791.0,0.6294
792.0,0.6247
793.0,0.6147
794.0,0.6248
795.0,0.6355
796.0,0.6164
797.0,0.6172
798.0,0.6347
799.0,0.6308
800.0,0.6199
801.0,0.6181
802.0,0.6163
803.0,0.6117
804.0,0.6125
805.0,0.6104
806.0,0.6273
807.0,0.6198
808.0,0.6203
809.0,0.6089
810.0,0.604
811.0,0.605
812.0,0.588
813.0,0.576
814.0,0.5079
815.0,0.5047
816.0,0.4699
817.0,0.4784
818.0,0.4607
819.0,0.5141
820.0,0.4846
821.0,0.5651
822.0,0.5492
823.0,0.3755
824.0,0.5336
825.0,0.5553
826.0,0.5347
827.0,0.5638
828.0,0.4791
829.0,0.5313
830.0,0.5245
831.0,0.5263
832.0,0.5103
833.0,0.5424
834.0,0.5236
835.0,0.5745
836.0,0.5503
837.0,0.576
838.0,0.5583
839.0,0.5673
840.0,0.5797
841.0,0.5715
842.0,0.5727
843.0,0.5722
844.0,0.5643
845.0,0.5833
846.0,0.5807
847.0,0.5699
848.0,0.5664
849.0,0.5503
850.0,0.5272
851.0,0.5582
852.0,0.5543
853.0,0.5335
854.0,0.4607
855.0,0.5061
856.0,0.5531
857.0,0.5654
858.0,0.5612
859.0,0.5617
860.0,0.5627
861.0,0.5596
862.0,0.5684
863.0,0.5818
864.0,0.5528
865.0,0.5479
866.0,0.4927
867.0,0.5141
868.0,0.5595
869.0,0.5479
870.0,0.5635
871.0,0.5558
872.0,0.5539
873.0,0.5527
874.0,0.5462
875.0,0.5351
876.0,0.5407
877.0,0.5461
878.0,0.5521
879.0,0.5436
880.0,0.5319
881.0,0.5239
882.0,0.5353
883.0,0.537
884.0,0.5345
885.0,0.5385
886.0,0.5133
887.0,0.5187
888.0,0.5263
889.0,0.5323
890.0,0.5279
891.0,0.527
892.0,0.5118
893.0,0.4957
894.0,0.4783
895.0,0.4519
896.0,0.4257
897.0,0.3656
898.0,0.399
899.0,0.3034
900.0,0.4086
901.0,0.3181
902.0,0.3733
903.0,0.377
904.0,0.4747
905.0,0.4583
906.0,0.4289
907.0,0.3484
908.0,0.3553
909.0,0.3849
910.0,0.3403
911.0,0.3628
912.0,0.3793
913.0,0.3453
914.0,0.3424
915.0,0.3712
916.0,0.3142
917.0,0.3989
918.0,0.3221
919.0,0.4062
920.0,0.4105
921.0,0.4269
922.0,0.3815
923.0,0.4124
924.0,0.391
925.0,0.3825
926.0,0.3866
927.0,0.433
928.0,0.317
929.0,0.2892
930.0,0.2268
931.0,0.2149
932.0,0.1542
933.0,0.125
934.0,0.06788
935.0,0.1282
936.0,0.07962
937.0,0.08064
938.0,0.09936
939.0,0.2082
940.0,0.2509
941.0,0.1888
942.0,0.219
943.0,0.1435
944.0,0.1516
945.0,0.1948
946.0,0.09842
947.0,0.1955
948.0,0.1435
949.0,0.2624
950.0,0.07177
951.0,0.2585
952.0,0.1379
953.0,0.1787
954.0,0.2199
955.0,0.1809
956.0,0.176
957.0,0.138
958.0,0.2504
959.0,0.1981
960.0,0.2221
961.0,0.2499
962.0,0.2364
963.0,0.2731
964.0,0.25
965.0,0.2721
966.0,0.272
967.0,0.2708
968.0,0.3651
969.0,0.3812
970.0,0.3498
971.0,0.4013
972.0,0.3837
973.0,0.3332
974.0,0.3161
975.0,0.3285
976.0,0.3114
977.0,0.3553
978.0,0.3372
979.0,0.3534
980.0,0.3321
981.0,0.399
982.0,0.3812
983.0,0.3658
984.0,0.4115
985.0,0.3797
986.0,0.419
987.0,0.4105
988.0,0.4098
989.0,0.4178
990.0,0.4073
991.0,0.419
992.0,0.4215
993.0,0.4119
994.0,0.4214
995.0,0.4209
996.0,0.419
997.0,0.4196
998.0,0.4176
999.0,0.4161
1000.0,0.4131
1001.0,0.4184
1002.0,0.4066
1003.0,0.411
1004.0,0.4008
1005.0,0.3863
1006.0,0.4013
1007.0,0.4098
1008.0,0.4075
1009.0,0.4053
1010.0,0.4036
1011.0,0.4077
1012.0,0.4042
1013.0,0.4068
1014.0,0.4039
1015.0,0.4012
1016.0,0.3994
1017.0,0.4004
1018.0,0.399
1019.0,0.3903
1020.0,0.3968
1021.0,0.3963
1022.0,0.3932
1023.0,0.3974
1024.0,0.3921
1025.0,0.3971
1026.0,0.3954
1027.0,0.3945
1028.0,0.3936
1029.0,0.389
1030.0,0.3917
1031.0,0.3901
1032.0,0.389
1033.0,0.3831
1034.0,0.3831
1035.0,0.3843
1036.0,0.3863
1037.0,0.38
1038.0,0.3817
1039.0,0.3815
1040.0,0.38
1041.0,0.3815
1042.0,0.3788
1043.0,0.3776
1044.0,0.3789
1045.0,0.3738
1046.0,0.3696
1047.0,0.3729
1048.0,0.375
1049.0,0.3736
1050.0,0.3719
1051.0,0.3714
1052.0,0.3698
1053.0,0.3669
1054.0,0.3677
1055.0,0.3678
1056.0,0.3665
1057.0,0.3654
1058.0,0.3564
1059.0,0.3568
1060.0,0.3562
1061.0,0.3558
1062.0,0.3576
1063.0,0.3541
1064.0,0.3583
1065.0,0.3556
1066.0,0.3487
1067.0,0.3531
1068.0,0.3454
1069.0,0.3348
1070.0,0.3461
1071.0,0.3516
1072.0,0.3474
1073.0,0.3424
1074.0,0.3514
1075.0,0.3335
1076.0,0.3511
1077.0,0.3446
1078.0,0.338
1079.0,0.3455
1080.0,0.3393
1081.0,0.3283
1082.0,0.3338
1083.0,0.3349
1084.0,0.3274
1085.0,0.3401
1086.0,0.3099
1087.0,0.3202
1088.0,0.3345
1089.0,0.324
1090.0,0.3167
1091.0,0.3334
1092.0,0.3326
1093.0,0.2812
1094.0,0.3042
1095.0,0.293
1096.0,0.2803
1097.0,0.3249
1098.0,0.2758
1099.0,0.2879
1100.0,0.2672
1101.0,0.2707
1102.0,0.2583
1103.0,0.2557
1104.0,0.256
1105.0,0.2812
1106.0,0.2137
1107.0,0.2668
1108.0,0.2253
1109.0,0.2259
1110.0,0.2644
1111.0,0.1782
1112.0,0.2242
1113.0,0.1416
1114.0,0.1583
1115.0,0.1312
1116.0,0.104
1117.0,0.03737
1118.0,0.1134
1119.0,0.0556
1120.0,0.06994
1121.0,0.09325
1122.0,0.03864
1123.0,0.06323
1124.0,0.05336
1125.0,0.06978
1126.0,0.02368
1127.0,0.07877
1128.0,0.04646
1129.0,0.0494
1130.0,0.03224
1131.0,0.151
1132.0,0.1182
1133.0,0.07401
1134.0,0.01841
1135.0,0.006927
1136.0,0.06142
1137.0,0.1481
1138.0,0.1041
1139.0,0.1569
1140.0,0.1305
1141.0,0.09896
1142.0,0.1142
1143.0,0.1628
1144.0,0.05606
1145.0,0.0714
1146.0,0.07699
1147.0,0.02644
1148.0,0.1409
1149.0,0.112
1150.0,0.06038
1151.0,0.1033
1152.0,0.1277
1153.0,0.1249
1154.0,0.0691
1155.0,0.1637
1156.0,0.1471
1157.0,0.1655
1158.0,0.1637
1159.0,0.177
1160.0,0.1509
1161.0,0.1866
1162.0,0.1875
1163.0,0.2541
1164.0,0.2176
1165.0,0.205
1166.0,0.2038
1167.0,0.2221
1168.0,0.2245
1169.0,0.2299
1170.0,0.2501
1171.0,0.2438
1172.0,0.2483
1173.0,0.2496
1174.0,0.1779
1175.0,0.2438
1176.0,0.2682
1177.0,0.2574
1178.0,0.1931
1179.0,0.2703
1180.0,0.2412
1181.0,0.2489
1182.0,0.1716
1183.0,0.2451
1184.0,0.2297
1185.0,0.2216
1186.0,0.2628
1187.0,0.2503
1188.0,0.1745
1189.0,0.2332
1190.0,0.2568
1191.0,0.2439
1192.0,0.2604
1193.0,0.2496
1194.0,0.2572
1195.0,0.2433
1196.0,0.2343
1197.0,0.2573
1198.0,0.2355
1199.0,0.2004
1200.0,0.2464
1201.0,0.2377
1202.0,0.2363
1203.0,0.2343
1204.0,0.205
1205.0,0.2418
1206.0,0.267
1207.0,0.2357
1208.0,0.232
1209.0,0.2367
1210.0,0.2466
1211.0,0.2349
1212.0,0.2321
1213.0,0.2582
1214.0,0.2377
1215.0,0.2332
1216.0,0.2574
1217.0,0.2507
1218.0,0.2553
1219.0,0.2522
1220.0,0.2556
1221.0,0.2581
1222.0,0.2514
1223.0,0.2491
1224.0,0.2476
1225.0,0.2564
1226.0,0.2581
1227.0,0.2383
1228.0,0.2594
1229.0,0.2582
1230.0,0.2538
1231.0,0.2609
1232.0,0.2594
1233.0,0.2506
1234.0,0.2607
1235.0,0.259
1236.0,0.2609
1237.0,0.2573
1238.0,0.26
1239.0,0.2567
1240.0,0.2576
1241.0,0.2565
1242.0,0.2559
1243.0,0.2538
1244.0,0.2556
1245.0,0.2567
1246.0,0.2552
1247.0,0.2542
1248.0,0.2541
1249.0,0.2548
1250.0,0.2533
1251.0,0.2501
1252.0,0.2501
1253.0,0.2481
1254.0,0.2457
1255.0,0.2498
1256.0,0.2429
1257.0,0.2416
1258.0,0.246
1259.0,0.2373
1260.0,0.2385
1261.0,0.2252
1262.0,0.2185
1263.0,0.219
1264.0,0.2023
1265.0,0.2175
1266.0,0.2094
1267.0,0.213
1268.0,0.2021
1269.0,0.126
1270.0,0.2123
1271.0,0.2245
1272.0,0.2252
1273.0,0.2228
1274.0,0.2235
1275.0,0.2267
1276.0,0.2289
1277.0,0.2304
1278.0,0.2347
1279.0,0.2326
1280.0,0.2297
1281.0,0.2191
1282.0,0.2111
1283.0,0.2274
1284.0,0.2328
1285.0,0.2343
1286.0,0.2375
1287.0,0.2339
1288.0,0.2338
1289.0,0.2265
1290.0,0.2317
1291.0,0.2349
1292.0,0.2209
1293.0,0.2304
1294.0,0.2288
1295.0,0.2277
1296.0,0.2175
1297.0,0.2058
1298.0,0.2214
1299.0,0.2307
1300.0,0.1955
1301.0,0.2015
1302.0,0.2207
1303.0,0.1929
1304.0,0.1647
1305.0,0.2162
1306.0,0.2162
1307.0,0.1682
1308.0,0.1932
1309.0,0.2145
1310.0,0.165
1311.0,0.1853
1312.0,0.1803
1313.0,0.1768
1314.0,0.1583
1315.0,0.1563
1316.0,0.1823
1317.0,0.1728
1318.0,0.1877
1319.0,0.1468
1320.0,0.1422
1321.0,0.1656
1322.0,0.1673
1323.0,0.1259
1324.0,0.144
1325.0,0.1797
1326.0,0.1543
1327.0,0.1472
1328.0,0.1269
1329.0,0.09522
1330.0,0.124
1331.0,0.07468
1332.0,0.07718
1333.0,0.1075
1334.0,0.09112
1335.0,0.1254
1336.0,0.09911
1337.0,0.08757
1338.0,0.09477
1339.0,0.09438
1340.0,0.09185
1341.0,0.08956
1342.0,0.09408
1343.0,0.06338
1344.0,0.03797
1345.0,0.05479
1346.0,0.02698
1347.0,0.02739
1348.0,0.001751
1349.0,0.006321
1350.0,0.006587
1351.0,0.001581
1352.0,0.0004218
1353.0,2.128e-05
1354.0,7.392e-05
1355.0,5.825e-07
1356.0,1.039e-05
1357.0,1.583e-05
1358.0,6.906e-07
1359.0,8.565e-08
1360.0,3.142e-07
1361.0,3.389e-10
1362.0,9.145e-13
1363.0,4.237e-07
1364.0,1.753e-07
1365.0,3.153e-13
1366.0,1.862e-06
1367.0,7.647e-07
1368.0,2.354e-15
1369.0,6.548e-08
1370.0,3.209e-08
1371.0,1.807e-09
1372.0,4.209e-07
1373.0,8.612e-06
1374.0,4.04e-05
1375.0,7.346e-05
1376.0,6.655e-05
1377.0,3.043e-05
1378.0,0.0002995
1379.0,1.278e-05
1380.0,1.833e-05
1381.0,4.764e-07
1382.0,3.789e-07
1383.0,5.642e-09
1384.0,7.387e-08
1385.0,3.615e-07
1386.0,3.361e-07
1387.0,4.174e-05
1388.0,8.233e-07
1389.0,0.0001431
1390.0,0.0001232
1391.0,8.199e-05
1392.0,5.315e-06
1393.0,2.837e-05
1394.0,1.446e-05
1395.0,1.052e-07
1396.0,4.91e-10
1397.0,1.126e-05
1398.0,0.0003362
1399.0,0.0002133
1400.0,2.102e-10
1401.0,8.87e-10
1402.0,0.0006031
1403.0,0.000756
1404.0,0.0002301
1405.0,5.093e-08
1406.0,0.0005958
1407.0,5.281e-05
1408.0,0.0004878
1409.0,0.000162
1410.0,0.0001306
1411.0,0.0006652
1412.0,0.0009029
1413.0,0.009512
1414.0,0.0001032
1415.0,4.929e-05
1416.0,0.01595
1417.0,0.004694
1418.0,0.005324
1419.0,0.0008205
1420.0,0.003253
1421.0,0.00352
1422.0,0.02085
1423.0,0.004003
1424.0,0.007543
1425.0,0.01104
1426.0,0.0127
1427.0,0.02375
1428.0,0.001642
1429.0,0.01756
1430.0,0.03046
1431.0,0.03361
1432.0,0.00129
1433.0,0.02117
1434.0,0.01067
1435.0,0.01031
1436.0,0.02045
1437.0,0.01568
1438.0,0.00647
1439.0,0.02806
1440.0,0.02101
1441.0,0.01571
1442.0,0.01746
