interpolation:linear
wavelength,value
280.0,7.271999999999999e-22
280.5,2.3560000000000002e-20
281.0,1.256e-19
281.5,5.164e-19
282.0,8.673e-19
282.5,2.146e-18
283.0,6.756e-18
283.5,1.097e-17
284.0,1.783e-16
284.5,5.168e-16
285.0,9.538e-16
285.5,4.652e-15
286.0,1.864e-14
286.5,8.297e-14
287.0,2.364e-13
287.5,9.033e-13
288.0,2.902e-12
288.5,8.944e-12
289.0,2.408e-11
289.5,7.323e-11
290.0,2.04e-10
290.5,4.168e-10
291.0,8.962e-10
291.5,2.575e-09
292.0,5.842e-09
292.5,8.202e-09
293.0,1.76e-08
293.5,4.284e-08
294.0,6.702e-08
294.5,8.878e-08
295.0,1.504e-07
295.5,3.048e-07
296.0,5.698e-07
296.5,8.183e-07
297.0,1.135e-06
297.5,3.185e-06
298.0,5.254e-06
298.5,5.501e-06
299.0,1.267e-05
299.5,2.3e-05
300.0,2.677e-05
300.5,4.134e-05
301.0,8.407e-05
301.5,0.0001516
302.0,0.0001394
302.5,0.0002809
303.0,0.0005271
303.5,0.0006849
304.0,0.0006606
304.5,0.001055
305.0,0.001761
305.5,0.002143
306.0,0.002124
306.5,0.002751
307.0,0.004451
307.5,0.006434
308.0,0.00689
308.5,0.008482
309.0,0.008605
309.5,0.01039
310.0,0.01069
310.5,0.01753
311.0,0.02246
311.5,0.02187
312.0,0.02283
312.5,0.02858
313.0,0.03147
313.5,0.03015
314.0,0.039
314.5,0.03615
315.0,0.0479
315.5,0.03923
316.0,0.03552
316.5,0.0526
317.0,0.06528
317.5,0.06737
318.0,0.05367
318.5,0.06935
319.0,0.08398
319.5,0.06631
320.0,0.07976
320.5,0.1039
321.0,0.09595
321.5,0.09235
322.0,0.09474
322.5,0.0826
323.0,0.08437
323.5,0.106
324.0,0.1243
324.5,0.125
325.0,0.1067
325.5,0.1401
326.0,0.1721
326.5,0.1746
327.0,0.1733
327.5,0.1664
328.0,0.1458
328.5,0.1564
329.0,0.1903
329.5,0.2172
330.0,0.2183
330.5,0.1726
331.0,0.1752
331.5,0.1798
332.0,0.1969
332.5,0.196
333.0,0.1948
333.5,0.1747
334.0,0.1787
334.5,0.2086
335.0,0.1974
335.5,0.2308
336.0,0.1598
336.5,0.1864
337.0,0.1523
337.5,0.1892
338.0,0.1865
338.5,0.2157
339.0,0.2137
339.5,0.2056
340.0,0.2413
340.5,0.2178
341.0,0.2127
341.5,0.1955
342.0,0.2338
342.5,0.2189
343.0,0.2407
343.5,0.2267
344.0,0.1675
344.5,0.1692
345.0,0.2243
345.5,0.2293
346.0,0.195
346.5,0.221
347.0,0.2372
347.5,0.1919
348.0,0.219
348.5,0.2191
349.0,0.2034
349.5,0.2015
350.0,0.2494
350.5,0.2631
351.0,0.2351
351.5,0.2284
352.0,0.2456
352.5,0.1918
353.0,0.2418
353.5,0.2588
354.0,0.2688
354.5,0.2726
355.0,0.2718
355.5,0.2457
356.0,0.2573
356.5,0.2198
357.0,0.1816
357.5,0.2224
358.0,0.1764
358.5,0.1508
359.0,0.211
359.5,0.2688
360.0,0.2851
360.5,0.228
361.0,0.208
361.5,0.2397
362.0,0.2075
362.5,0.2875
363.0,0.2584
363.5,0.2382
364.0,0.2915
364.5,0.2493
365.0,0.254
365.5,0.319
366.0,0.3382
366.5,0.318
367.0,0.3098
367.5,0.3217
368.0,0.2817
368.5,0.2844
369.0,0.3073
369.5,0.3277
370.0,0.3495
370.5,0.2715
371.0,0.2902
371.5,0.3633
372.0,0.2412
372.5,0.2894
373.0,0.2945
373.5,0.1918
374.0,0.2788
374.5,0.231
375.0,0.2247
375.5,0.3356
376.0,0.2783
376.5,0.2885
377.0,0.3056
377.5,0.3578
378.0,0.388
378.5,0.3668
379.0,0.3028
379.5,0.2767
380.0,0.2878
380.5,0.3488
381.0,0.3498
381.5,0.2775
382.0,0.2466
382.5,0.2104
383.0,0.1949
383.5,0.1878
384.0,0.2073
384.5,0.3051
385.0,0.3027
385.5,0.2821
386.0,0.2418
386.5,0.3178
387.0,0.2642
387.5,0.2968
388.0,0.2742
388.5,0.2712
389.0,0.2929
389.5,0.355
390.0,0.3564
390.5,0.3282
391.0,0.3865
391.5,0.3944
392.0,0.3323
392.5,0.2977
393.0,0.1658
393.5,0.1206
394.0,0.2454
394.5,0.3122
395.0,0.3812
395.5,0.3873
396.0,0.336
396.5,0.1966
397.0,0.1476
397.5,0.3003
398.0,0.4206
398.5,0.4349
399.0,0.4714
399.5,0.47
400.0,0.4882
401.0,0.4936
402.0,0.5214
403.0,0.4958
404.0,0.4886
405.0,0.4889
406.0,0.4815
407.0,0.4743
408.0,0.493
409.0,0.5281
410.0,0.4619
411.0,0.5007
412.0,0.5385
413.0,0.5254
414.0,0.5323
415.0,0.5342
416.0,0.5441
417.0,0.5311
418.0,0.5216
419.0,0.5289
420.0,0.5269
421.0,0.5517
422.0,0.5247
423.0,0.5129
424.0,0.5427
425.0,0.5422
426.0,0.5287
427.0,0.5192
428.0,0.506
429.0,0.4798
430.0,0.4203
431.0,0.4166
432.0,0.5384
433.0,0.5417
434.0,0.5032
435.0,0.5257
436.0,0.593
437.0,0.5856
438.0,0.5336
439.0,0.5516
440.0,0.5696
441.0,0.5907
442.0,0.6338
443.0,0.6173
444.0,0.6312
445.0,0.6176
446.0,0.5901
447.0,0.6386
448.0,0.6484
449.0,0.6517
450.0,0.6704
451.0,0.6955
452.0,0.6705
453.0,0.631
454.0,0.6592
455.0,0.6634
456.0,0.6794
457.0,0.6909
458.0,0.6671
459.0,0.6639
460.0,0.6656
461.0,0.6812
462.0,0.6869
463.0,0.6822
464.0,0.6717
465.0,0.6638
466.0,0.6708
467.0,0.6584
468.0,0.6662
469.0,0.6698
470.0,0.6484
471.0,0.6478
472.0,0.6826
473.0,0.6738
474.0,0.6744
475.0,0.6798
476.0,0.6589
477.0,0.6603
478.0,0.6789
479.0,0.6751
480.0,0.6768
481.0,0.69
482.0,0.6942
483.0,0.6865
484.0,0.6728
485.0,0.6415
486.0,0.5612
487.0,0.5885
488.0,0.6456
489.0,0.6475
490.0,0.6815
491.0,0.67
492.0,0.6328
493.0,0.6537
494.0,0.6603
495.0,0.666
496.0,0.6702
497.0,0.6805
498.0,0.6487
499.0,0.6568
500.0,0.6373
501.0,0.6253
502.0,0.6158
503.0,0.6401
504.0,0.6216
505.0,0.6457
506.0,0.6665
507.0,0.6343
508.0,0.6153
509.0,0.6331
510.0,0.6302
511.0,0.6476
512.0,0.6549
513.0,0.6199
514.0,0.6159
515.0,0.6098
516.0,0.6082
517.0,0.5406
518.0,0.5683
519.0,0.596
520.0,0.6176
521.0,0.6234
522.0,0.6238
523.0,0.6124
524.0,0.6339
525.0,0.6408
526.0,0.612
527.0,0.5762
528.0,0.6091
529.0,0.6417
530.0,0.6323
531.0,0.6414
532.0,0.6193
533.0,0.6012
534.0,0.6192
535.0,0.6329
536.0,0.639
537.0,0.614
538.0,0.625
539.0,0.6197
540.0,0.5941
541.0,0.5973
542.0,0.6157
543.0,0.6098
544.0,0.6198
545.0,0.618
546.0,0.6202
547.0,0.6204
548.0,0.6132
549.0,0.6152
550.0,0.6226
551.0,0.6151
552.0,0.6194
553.0,0.6082
554.0,0.6227
555.0,0.6238
556.0,0.6156
557.0,0.5963
558.0,0.5914
559.0,0.58
560.0,0.587
561.0,0.5943
562.0,0.5896
563.0,0.6052
564.0,0.5883
565.0,0.5829
566.0,0.574
567.0,0.5844
568.0,0.578
569.0,0.5621
570.0,0.5622
571.0,0.5594
572.0,0.5713
573.0,0.5771
574.0,0.575
575.0,0.5637
576.0,0.5586
577.0,0.5649
578.0,0.5571
579.0,0.5604
580.0,0.5727
581.0,0.5769
582.0,0.5889
583.0,0.5913
584.0,0.597
585.0,0.5828
586.0,0.5708
587.0,0.5826
588.0,0.5656
589.0,0.4956
590.0,0.5188
591.0,0.5523
592.0,0.5433
593.0,0.5539
594.0,0.549
595.0,0.5334
596.0,0.559
597.0,0.5518
598.0,0.5517
599.0,0.5528
600.0,0.5548
601.0,0.5511
602.0,0.5475
603.0,0.557
604.0,0.5665
605.0,0.5638
606.0,0.562
607.0,0.5681
608.0,0.5623
609.0,0.5637
610.0,0.5602
611.0,0.5634
612.0,0.562
613.0,0.5552
614.0,0.5481
615.0,0.5604
616.0,0.5423
617.0,0.5414
618.0,0.5625
619.0,0.557
620.0,0.5605
621.0,0.5606
622.0,0.5537
623.0,0.545
624.0,0.5359
625.0,0.5348
626.0,0.5426
627.0,0.5476
628.0,0.4988
629.0,0.5303
630.0,0.5176
631.0,0.5336
632.0,0.528
633.0,0.5458
634.0,0.5419
635.0,0.5511
636.0,0.5446
637.0,0.5541
638.0,0.5604
639.0,0.5547
640.0,0.5499
641.0,0.55
642.0,0.548
643.0,0.5554
644.0,0.5542
645.0,0.5548
646.0,0.5403
647.0,0.5304
648.0,0.5309
649.0,0.5202
650.0,0.5272
651.0,0.5509
652.0,0.5234
653.0,0.5438
654.0,0.5382
655.0,0.5158
656.0,0.4588
657.0,0.4714
658.0,0.5297
659.0,0.5341
660.0,0.5366
661.0,0.5405
662.0,0.5407
663.0,0.5304
664.0,0.538
665.0,0.5394
666.0,0.5402
667.0,0.5402
668.0,0.5409
669.0,0.5496
670.0,0.5475
671.0,0.5476
672.0,0.5431
673.0,0.5515
674.0,0.5496
675.0,0.5448
676.0,0.5488
677.0,0.5435
678.0,0.5452
679.0,0.5366
680.0,0.541
681.0,0.5375
682.0,0.5368
683.0,0.5358
684.0,0.5331
685.0,0.5379
686.0,0.5345
687.0,0.3019
688.0,0.3776
689.0,0.3798
690.0,0.4068
691.0,0.438
692.0,0.462
693.0,0.4575
694.0,0.4544
695.0,0.4799
696.0,0.4809
697.0,0.5182
698.0,0.51
699.0,0.4925
700.0,0.4863
701.0,0.4794
702.0,0.4848
703.0,0.486
704.0,0.5048
705.0,0.5055
706.0,0.5063
707.0,0.5072
708.0,0.5082
709.0,0.511
710.0,0.5099
711.0,0.51
712.0,0.5094
713.0,0.5034
714.0,0.5055
715.0,0.4874
716.0,0.4872
717.0,0.4031
718.0,0.3682
719.0,0.3356
720.0,0.3497
721.0,0.3974
722.0,0.4668
723.0,0.4284
724.0,0.3786
725.0,0.3701
726.0,0.3882
727.0,0.3986
728.0,0.3682
729.0,0.3888
730.0,0.4104
731.0,0.3911
732.0,0.4256
733.0,0.4572
734.0,0.4701
735.0,0.4593
736.0,0.4586
737.0,0.4603
738.0,0.4725
739.0,0.4632
740.0,0.4768
741.0,0.4729
742.0,0.4743
743.0,0.4867
744.0,0.4859
745.0,0.4865
746.0,0.4887
747.0,0.4899
748.0,0.4889
749.0,0.4834
750.0,0.4831
751.0,0.4783
752.0,0.4804
753.0,0.4829
754.0,0.484
755.0,0.4812
756.0,0.4811
757.0,0.4817
758.0,0.4756
759.0,0.4628
760.0,0.03812
761.0,0.01564
762.0,0.1828
763.0,0.06878
764.0,0.1218
765.0,0.1826
766.0,0.2474
767.0,0.3383
768.0,0.4129
769.0,0.4269
770.0,0.4474
771.0,0.4537
772.0,0.4556
773.0,0.459
774.0,0.4569
775.0,0.4536
776.0,0.4592
777.0,0.4531
778.0,0.4504
779.0,0.4508
780.0,0.4483
781.0,0.4488
782.0,0.4517
783.0,0.4439
784.0,0.4461
785.0,0.4426
786.0,0.4473
787.0,0.437
788.0,0.4304
789.0,0.4301
790.0,0.4153
791.0,0.4222
792.0,0.4196
793.0,0.4125
794.0,0.423
795.0,0.4292
796.0,0.4113
797.0,0.4115
798.0,0.4281
799.0,0.4245
800.0,0.416
801.0,0.4137
802.0,0.4125
803.0,0.4087
804.0,0.4098
805.0,0.4099
806.0,0.4237
807.0,0.4181
808.0,0.4187
809.0,0.4091
810.0,0.4046
811.0,0.4025
812.0,0.388
813.0,0.3783
814.0,0.3235
815.0,0.322
816.0,0.2986
817.0,0.3048
818.0,0.2913
819.0,0.3337
820.0,0.3113
821.0,0.3755
822.0,0.3629
823.0,0.2291
824.0,0.348
825.0,0.3689
826.0,0.3512
827.0,0.3744
828.0,0.3065
829.0,0.3498
830.0,0.3443
831.0,0.3456
832.0,0.333
833.0,0.3596
834.0,0.3433
835.0,0.3851
836.0,0.3634
837.0,0.3864
838.0,0.3718
839.0,0.3812
840.0,0.3902
841.0,0.3835
842.0,0.3861
843.0,0.3877
844.0,0.3814
845.0,0.3956
846.0,0.3941
847.0,0.3874
848.0,0.3841
849.0,0.3732
850.0,0.3577
851.0,0.3778
852.0,0.3756
853.0,0.3622
854.0,0.3121
855.0,0.3438
856.0,0.3753
857.0,0.3843
858.0,0.3812
859.0,0.3819
860.0,0.3828
861.0,0.3806
862.0,0.3868
863.0,0.3959
864.0,0.3761
865.0,0.3729
866.0,0.3353
867.0,0.35
868.0,0.3809
869.0,0.373
870.0,0.3836
871.0,0.3784
872.0,0.3771
873.0,0.3764
874.0,0.3719
875.0,0.3643
876.0,0.3681
877.0,0.3719
878.0,0.3757
879.0,0.37
880.0,0.3621
881.0,0.3563
882.0,0.3638
883.0,0.3654
884.0,0.3635
885.0,0.3662
886.0,0.3475
887.0,0.3524
888.0,0.3569
889.0,0.3623
890.0,0.3576
891.0,0.3579
892.0,0.3454
893.0,0.3325
894.0,0.3163
895.0,0.2932
896.0,0.2746
897.0,0.2291
898.0,0.2535
899.0,0.1852
900.0,0.2639
901.0,0.1941
902.0,0.2381
903.0,0.2368
904.0,0.3139
905.0,0.3009
906.0,0.2798
907.0,0.2167
908.0,0.2229
909.0,0.2459
910.0,0.209
911.0,0.2287
912.0,0.2401
913.0,0.2117
914.0,0.2116
915.0,0.229
916.0,0.1924
917.0,0.2526
918.0,0.1967
919.0,0.2599
920.0,0.2683
921.0,0.279
922.0,0.2433
923.0,0.2701
924.0,0.248
925.0,0.2429
926.0,0.2448
927.0,0.2801
928.0,0.1881
929.0,0.167
930.0,0.1241
931.0,0.1181
932.0,0.07775
933.0,0.05992
934.0,0.02627
935.0,0.06395
936.0,0.03556
937.0,0.03576
938.0,0.04556
939.0,0.1142
940.0,0.1428
941.0,0.1009
942.0,0.1206
943.0,0.07404
944.0,0.0832
945.0,0.1055
946.0,0.0467
947.0,0.104
948.0,0.07568
949.0,0.1462
950.0,0.03093
951.0,0.1451
952.0,0.06908
953.0,0.09509
954.0,0.1233
955.0,0.09687
956.0,0.09978
957.0,0.06857
958.0,0.1495
959.0,0.1107
960.0,0.124
961.0,0.1457
962.0,0.1373
963.0,0.1639
964.0,0.1485
965.0,0.1634
966.0,0.1624
967.0,0.161
968.0,0.2374
969.0,0.2452
970.0,0.223
971.0,0.2647
972.0,0.2512
973.0,0.2091
974.0,0.1975
975.0,0.2084
976.0,0.1926
977.0,0.23
978.0,0.2139
979.0,0.2269
980.0,0.2118
981.0,0.2635
982.0,0.2483
983.0,0.2365
984.0,0.2757
985.0,0.2473
986.0,0.2832
987.0,0.2745
988.0,0.2743
989.0,0.2841
990.0,0.2725
991.0,0.2846
992.0,0.2866
993.0,0.2771
994.0,0.2868
995.0,0.2869
996.0,0.2851
997.0,0.2858
998.0,0.2843
999.0,0.2834
1000.0,0.2807
1001.0,0.285
1002.0,0.2742
1003.0,0.2798
1004.0,0.2721
1005.0,0.2632
1006.0,0.273
1007.0,0.279
1008.0,0.277
1009.0,0.2749
1010.0,0.2735
1011.0,0.2777
1012.0,0.2747
1013.0,0.2772
1014.0,0.2752
1015.0,0.2733
1016.0,0.272
1017.0,0.2726
1018.0,0.272
1019.0,0.265
1020.0,0.2703
1021.0,0.2702
1022.0,0.2677
1023.0,0.2704
1024.0,0.2658
1025.0,0.2706
1026.0,0.2692
1027.0,0.2686
1028.0,0.268
1029.0,0.2647
1030.0,0.2669
1031.0,0.2657
1032.0,0.265
1033.0,0.261
1034.0,0.2611
1035.0,0.2619
1036.0,0.2631
1037.0,0.2589
1038.0,0.26
1039.0,0.2598
1040.0,0.2587
1041.0,0.2596
1042.0,0.2578
1043.0,0.2569
1044.0,0.2577
1045.0,0.2542
1046.0,0.2513
1047.0,0.2535
1048.0,0.2548
1049.0,0.2538
1050.0,0.2525
1051.0,0.252
1052.0,0.2509
1053.0,0.2488
1054.0,0.2491
1055.0,0.2491
1056.0,0.248
1057.0,0.2471
1058.0,0.2409
1059.0,0.241
1060.0,0.2405
1061.0,0.2401
1062.0,0.2412
1063.0,0.2387
1064.0,0.2415
1065.0,0.2394
1066.0,0.235
1067.0,0.2379
1068.0,0.2324
1069.0,0.2255
1070.0,0.2328
1071.0,0.2375
1072.0,0.2339
1073.0,0.2307
1074.0,0.2378
1075.0,0.2229
1076.0,0.2375
1077.0,0.2315
1078.0,0.2264
1079.0,0.2342
1080.0,0.228
1081.0,0.2192
1082.0,0.2253
1083.0,0.2267
1084.0,0.218
1085.0,0.2288
1086.0,0.2046
1087.0,0.214
1088.0,0.2259
1089.0,0.2161
1090.0,0.2098
1091.0,0.2244
1092.0,0.2244
1093.0,0.1824
1094.0,0.2043
1095.0,0.1907
1096.0,0.1804
1097.0,0.2193
1098.0,0.1765
1099.0,0.1853
1100.0,0.1691
1101.0,0.1723
1102.0,0.1624
1103.0,0.1593
1104.0,0.1597
1105.0,0.1804
1106.0,0.1254
1107.0,0.1689
1108.0,0.1357
1109.0,0.1374
1110.0,0.1661
1111.0,0.1029
1112.0,0.1368
1113.0,0.07751
1114.0,0.08722
1115.0,0.0717
1116.0,0.05202
1117.0,0.01432
1118.0,0.05803
1119.0,0.02452
1120.0,0.03033
1121.0,0.04259
1122.0,0.01452
1123.0,0.0276
1124.0,0.02323
1125.0,0.03137
1126.0,0.007738
1127.0,0.0357
1128.0,0.0177
1129.0,0.01917
1130.0,0.01173
1131.0,0.07757
1132.0,0.05892
1133.0,0.03204
1134.0,0.005852
1135.0,0.002347
1136.0,0.02494
1137.0,0.07415
1138.0,0.0513
1139.0,0.08796
1140.0,0.06908
1141.0,0.04888
1142.0,0.05835
1143.0,0.0878
1144.0,0.0256
1145.0,0.03093
1146.0,0.03329
1147.0,0.008559
1148.0,0.07547
1149.0,0.05703
1150.0,0.02843
1151.0,0.05088
1152.0,0.06651
1153.0,0.06789
1154.0,0.03
1155.0,0.09158
1156.0,0.08013
1157.0,0.09436
1158.0,0.09319
1159.0,0.1032
1160.0,0.08573
1161.0,0.1121
1162.0,0.112
1163.0,0.1628
1164.0,0.1355
1165.0,0.1237
1166.0,0.1262
1167.0,0.1394
1168.0,0.14
1169.0,0.1445
1170.0,0.1606
1171.0,0.1564
1172.0,0.1615
1173.0,0.1603
1174.0,0.1064
1175.0,0.1586
1176.0,0.179
1177.0,0.1686
1178.0,0.1205
1179.0,0.1805
1180.0,0.1561
1181.0,0.1613
1182.0,0.1045
1183.0,0.1599
1184.0,0.1475
1185.0,0.1402
1186.0,0.1733
1187.0,0.1628
1188.0,0.1051
1189.0,0.1514
1190.0,0.1698
1191.0,0.1569
1192.0,0.1726
1193.0,0.1639
1194.0,0.1699
1195.0,0.1577
1196.0,0.1503
1197.0,0.1713
1198.0,0.1552
1199.0,0.1259
1200.0,0.1617
1201.0,0.1537
1202.0,0.1546
1203.0,0.1524
1204.0,0.1305
1205.0,0.1599
1206.0,0.1797
1207.0,0.1533
1208.0,0.1528
1209.0,0.1563
1210.0,0.1643
1211.0,0.1542
1212.0,0.1491
1213.0,0.1723
1214.0,0.154
1215.0,0.1506
1216.0,0.172
1217.0,0.1663
1218.0,0.1705
1219.0,0.1677
1220.0,0.1708
1221.0,0.1732
1222.0,0.1682
1223.0,0.1661
1224.0,0.1639
1225.0,0.1719
1226.0,0.174
1227.0,0.1573
1228.0,0.1755
1229.0,0.174
1230.0,0.1704
1231.0,0.1773
1232.0,0.1762
1233.0,0.1674
1234.0,0.1778
1235.0,0.1762
1236.0,0.1778
1237.0,0.1742
1238.0,0.1772
1239.0,0.1749
1240.0,0.1757
1241.0,0.1742
1242.0,0.1745
1243.0,0.1731
1244.0,0.1741
1245.0,0.175
1246.0,0.174
1247.0,0.1731
1248.0,0.1727
1249.0,0.1735
1250.0,0.1722
1251.0,0.1696
1252.0,0.1702
1253.0,0.1678
1254.0,0.1654
1255.0,0.1697
1256.0,0.1632
1257.0,0.162
1258.0,0.1664
1259.0,0.1576
1260.0,0.1588
1261.0,0.1465
1262.0,0.1404
1263.0,0.1405
1264.0,0.1258
1265.0,0.1397
1266.0,0.1321
1267.0,0.136
1268.0,0.1264
1269.0,0.06328
1270.0,0.1349
1271.0,0.1464
1272.0,0.1473
1273.0,0.1454
1274.0,0.1463
1275.0,0.1491
1276.0,0.1512
1277.0,0.153
1278.0,0.1573
1279.0,0.1558
1280.0,0.1539
1281.0,0.1475
1282.0,0.1432
1283.0,0.154
1284.0,0.1575
1285.0,0.1587
1286.0,0.1614
1287.0,0.1578
1288.0,0.1581
1289.0,0.151
1290.0,0.1569
1291.0,0.1594
1292.0,0.1459
1293.0,0.1554
1294.0,0.1542
1295.0,0.1522
1296.0,0.1429
1297.0,0.1335
1298.0,0.1474
1299.0,0.156
1300.0,0.1259
1301.0,0.1309
1302.0,0.147
1303.0,0.1249
1304.0,0.1009
1305.0,0.1437
1306.0,0.1431
1307.0,0.1051
1308.0,0.126
1309.0,0.1412
1310.0,0.1027
1311.0,0.1195
1312.0,0.1154
1313.0,0.112
1314.0,0.09824
1315.0,0.09566
1316.0,0.1166
1317.0,0.1097
1318.0,0.1216
1319.0,0.08831
1320.0,0.08696
1321.0,0.1036
1322.0,0.1034
1323.0,0.0724
1324.0,0.08686
1325.0,0.1143
1326.0,0.09467
1327.0,0.08935
1328.0,0.07519
1329.0,0.05178
1330.0,0.06982
1331.0,0.03705
1332.0,0.03981
1333.0,0.05641
1334.0,0.05093
1335.0,0.07179
1336.0,0.05388
1337.0,0.04665
1338.0,0.05023
1339.0,0.05074
1340.0,0.05085
1341.0,0.04613
1342.0,0.04887
1343.0,0.02722
1344.0,0.01684
1345.0,0.02408
1346.0,0.00892
1347.0,0.008561
1348.0,0.0002955
1349.0,0.001244
1350.0,0.001445
1351.0,0.000196
1352.0,2.547e-05
1353.0,7.192e-07
1354.0,3.891e-06
1355.0,8.32e-09
1356.0,3.436e-07
1357.0,5.235e-07
1358.0,1.036e-08
1359.0,5.409e-10
1360.0,3.371e-09
1361.0,1.096e-12
1362.0,2.565e-15
1363.0,3.103e-09
1364.0,1.369e-09
1365.0,8.129e-16
1366.0,1.679e-08
1367.0,9.07e-09
1368.0,6.087e-18
1369.0,5.034e-10
1370.0,1.79e-10
1371.0,7.749e-12
1372.0,5.13e-09
1373.0,1.925e-07
1374.0,1.441e-06
1375.0,2.345e-06
1376.0,3.615e-06
1377.0,1.512e-06
1378.0,1.659e-05
1379.0,6.448e-07
1380.0,6.509e-07
1381.0,1.403e-08
1382.0,4.077e-09
1383.0,4.85e-11
1384.0,4.816e-10
1385.0,6.417e-09
1386.0,2.716e-09
1387.0,1.006e-06
1388.0,2.443e-08
1389.0,6.292e-06
1390.0,5.145e-06
1391.0,3.266e-06
1392.0,2e-07
1393.0,1.344e-06
1394.0,2.891e-07
1395.0,1.447e-09
1396.0,1.629e-12
1397.0,4.445e-07
1398.0,1.715e-05
1399.0,1.132e-05
1400.0,5.804e-13
1401.0,3.166e-12
1402.0,6.983e-05
1403.0,7.442e-05
1404.0,2.092e-05
1405.0,4.954e-10
1406.0,4.116e-05
1407.0,5.058e-06
1408.0,3.565e-05
1409.0,7.84e-06
1410.0,9.132e-06
1411.0,6.781e-05
1412.0,0.0001124
1413.0,0.001942
1414.0,7.699e-06
1415.0,3.087e-06
1416.0,0.004754
1417.0,0.001028
1418.0,0.001015
1419.0,0.0001457
1420.0,0.0006128
1421.0,0.0007275
1422.0,0.006238
1423.0,0.001123
1424.0,0.002265
1425.0,0.003019
1426.0,0.004079
1427.0,0.008853
1428.0,0.0002589
1429.0,0.005824
1430.0,0.01209
1431.0,0.01384
1432.0,0.0001991
1433.0,0.008097
