interpolation:linear
wavelength,value
280.0,3.951e-21
280.5,1.227e-19
281.0,6.456e-19
281.5,4.297e-19
282.0,1.194e-18
282.5,3.113e-18
283.0,1e-17
283.5,1.634e-17
284.0,2.628e-16
284.5,7.552e-16
285.0,1.659e-15
285.5,8.19e-15
286.0,3.287e-14
286.5,1.454e-13
287.0,4.118e-13
287.5,1.557e-12
288.0,4.038e-12
288.5,1.369e-11
289.0,3.949e-11
289.5,1.267e-10
290.0,3.653e-10
290.5,7.65e-10
291.0,1.686e-09
291.5,5.236e-09
292.0,1.146e-08
292.5,1.747e-08
293.0,4.169e-08
293.5,1.176e-07
294.0,2.047e-07
294.5,2.656e-07
295.0,5.005e-07
295.5,1.351e-06
296.0,2.706e-06
296.5,3.942e-06
297.0,5.531e-06
297.5,1.572e-05
298.0,2.612e-05
298.5,2.745e-05
299.0,6.327e-05
299.5,0.000114
300.0,0.0001318
300.5,0.0002016
301.0,0.0004024
301.5,0.0007133
302.0,0.0006511
302.5,0.001279
303.0,0.002311
303.5,0.002921
304.0,0.002751
304.5,0.004126
305.0,0.006289
305.5,0.007223
306.0,0.006999
306.5,0.008728
307.0,0.01298
307.5,0.01728
308.0,0.01826
308.5,0.02157
309.0,0.02121
309.5,0.02424
310.0,0.02435
310.5,0.03943
311.0,0.04948
311.5,0.04776
312.0,0.0477
312.5,0.05799
313.0,0.06287
313.5,0.0611
314.0,0.0763
314.5,0.06753
315.0,0.08872
315.5,0.07431
316.0,0.06479
316.5,0.0929
317.0,0.1154
317.5,0.1201
318.0,0.09362
318.5,0.1159
319.0,0.1374
319.5,0.1123
320.0,0.1358
320.5,0.1694
321.0,0.1505
321.5,0.1442
322.0,0.1542
322.5,0.1342
323.0,0.1334
323.5,0.1636
324.0,0.191
324.5,0.1941
325.0,0.1679
325.5,0.2155
326.0,0.2635
326.5,0.2635
327.0,0.2628
327.5,0.2541
328.0,0.2267
328.5,0.2377
329.0,0.2841
329.5,0.3224
330.0,0.3254
330.5,0.2609
331.0,0.266
331.5,0.2701
332.0,0.2914
332.5,0.288
333.0,0.2874
333.5,0.2604
334.0,0.2669
334.5,0.3076
335.0,0.2889
335.5,0.3374
336.0,0.2335
336.5,0.2736
337.0,0.2247
337.5,0.2796
338.0,0.2727
338.5,0.3148
339.0,0.3116
339.5,0.2999
340.0,0.3525
340.5,0.3177
341.0,0.3099
341.5,0.2846
342.0,0.3402
342.5,0.3184
343.0,0.3502
343.5,0.3298
344.0,0.2438
344.5,0.2463
345.0,0.326
345.5,0.3329
346.0,0.283
346.5,0.3205
347.0,0.3442
347.5,0.2784
348.0,0.3174
348.5,0.3173
349.0,0.2944
349.5,0.2916
350.0,0.3608
350.5,0.3806
351.0,0.3401
351.5,0.3306
352.0,0.3552
352.5,0.2772
353.0,0.3493
353.5,0.3736
354.0,0.3879
354.5,0.3934
355.0,0.3922
355.5,0.3544
356.0,0.3709
356.5,0.3168
357.0,0.2618
357.5,0.3205
358.0,0.2541
358.5,0.2172
359.0,0.3038
359.5,0.3872
360.0,0.4105
360.5,0.3282
361.0,0.2993
361.5,0.3447
362.0,0.2982
362.5,0.4129
363.0,0.3709
363.5,0.3418
364.0,0.4181
364.5,0.3575
365.0,0.3642
365.5,0.4572
366.0,0.4845
366.5,0.4554
367.0,0.4436
367.5,0.4604
368.0,0.403
368.5,0.4068
369.0,0.4394
369.5,0.4685
370.0,0.4996
370.5,0.3878
371.0,0.4145
371.5,0.5187
372.0,0.3443
372.5,0.413
373.0,0.4202
373.5,0.2735
374.0,0.3975
374.5,0.3293
375.0,0.3202
375.5,0.4781
376.0,0.3964
376.5,0.4109
377.0,0.4351
377.5,0.5092
378.0,0.5521
378.5,0.5219
379.0,0.4308
379.5,0.3935
380.0,0.4092
380.5,0.4958
381.0,0.497
381.5,0.3941
382.0,0.3501
382.5,0.2986
383.0,0.2765
383.5,0.2664
384.0,0.2939
384.5,0.4324
385.0,0.4289
385.5,0.3996
386.0,0.3423
386.5,0.4498
387.0,0.3738
387.5,0.42
388.0,0.3878
388.5,0.3835
389.0,0.4141
389.5,0.5016
390.0,0.5036
390.5,0.4635
391.0,0.5457
391.5,0.5568
392.0,0.469
392.5,0.42
393.0,0.2338
393.5,0.17
394.0,0.346
394.5,0.44
395.0,0.537
395.5,0.5456
396.0,0.4731
396.5,0.2767
397.0,0.2077
397.5,0.4224
398.0,0.5917
398.5,0.6117
399.0,0.6626
399.5,0.6605
400.0,0.686
401.0,0.6956
402.0,0.7342
403.0,0.6978
404.0,0.6873
405.0,0.6874
406.0,0.6765
407.0,0.6659
408.0,0.6921
409.0,0.741
410.0,0.6477
411.0,0.7018
412.0,0.7541
413.0,0.7356
414.0,0.7449
415.0,0.7471
416.0,0.7605
417.0,0.742
418.0,0.7285
419.0,0.7383
420.0,0.7352
421.0,0.7694
422.0,0.7315
423.0,0.7147
424.0,0.7561
425.0,0.755
426.0,0.7357
427.0,0.7221
428.0,0.7035
429.0,0.6667
430.0,0.5836
431.0,0.5785
432.0,0.7472
433.0,0.7515
434.0,0.6979
435.0,0.7289
436.0,0.8216
437.0,0.8108
438.0,0.7385
439.0,0.7638
440.0,0.7883
441.0,0.8171
442.0,0.8764
443.0,0.8537
444.0,0.8724
445.0,0.8536
446.0,0.8149
447.0,0.8812
448.0,0.8949
449.0,0.8987
450.0,0.9241
451.0,0.9585
452.0,0.9236
453.0,0.8688
454.0,0.9072
455.0,0.9129
456.0,0.9347
457.0,0.9503
458.0,0.9179
459.0,0.9132
460.0,0.9157
461.0,0.9369
462.0,0.9443
463.0,0.9378
464.0,0.9225
465.0,0.9111
466.0,0.92
467.0,0.9032
468.0,0.9139
469.0,0.9187
470.0,0.8894
471.0,0.8884
472.0,0.9361
473.0,0.924
474.0,0.9252
475.0,0.9331
476.0,0.9051
477.0,0.9075
478.0,0.9328
479.0,0.9272
480.0,0.9291
481.0,0.9466
482.0,0.9517
483.0,0.9404
484.0,0.9212
485.0,0.8778
486.0,0.7674
487.0,0.8044
488.0,0.8825
489.0,0.8852
490.0,0.9314
491.0,0.9154
492.0,0.8645
493.0,0.8928
494.0,0.9018
495.0,0.9095
496.0,0.9152
497.0,0.9293
498.0,0.8859
499.0,0.8972
500.0,0.871
501.0,0.8549
502.0,0.8428
503.0,0.8769
504.0,0.8541
505.0,0.8852
506.0,0.9138
507.0,0.8695
508.0,0.8426
509.0,0.8664
510.0,0.8619
511.0,0.8851
512.0,0.8948
513.0,0.8469
514.0,0.8412
515.0,0.8328
516.0,0.8308
517.0,0.7382
518.0,0.7761
519.0,0.814
520.0,0.8436
521.0,0.8516
522.0,0.8523
523.0,0.837
524.0,0.8668
525.0,0.8769
526.0,0.8377
527.0,0.7892
528.0,0.8346
529.0,0.8797
530.0,0.867
531.0,0.8798
532.0,0.8496
533.0,0.8247
534.0,0.8491
535.0,0.8677
536.0,0.8758
537.0,0.8413
538.0,0.8562
539.0,0.849
540.0,0.8139
541.0,0.8192
542.0,0.8447
543.0,0.836
544.0,0.8503
545.0,0.8477
546.0,0.8513
547.0,0.8511
548.0,0.841
549.0,0.8435
550.0,0.8536
551.0,0.8432
552.0,0.8491
553.0,0.8339
554.0,0.8538
555.0,0.8555
556.0,0.8444
557.0,0.8181
558.0,0.8118
559.0,0.7966
560.0,0.8065
561.0,0.8168
562.0,0.8108
563.0,0.8329
564.0,0.8101
565.0,0.803
566.0,0.7912
567.0,0.806
568.0,0.7985
569.0,0.779
570.0,0.7789
571.0,0.7743
572.0,0.7925
573.0,0.8009
574.0,0.7983
575.0,0.7832
576.0,0.7761
577.0,0.7846
578.0,0.773
579.0,0.7763
580.0,0.7915
581.0,0.7959
582.0,0.8113
583.0,0.8135
584.0,0.8207
585.0,0.8008
586.0,0.7843
587.0,0.8013
588.0,0.7811
589.0,0.6906
590.0,0.7223
591.0,0.7652
592.0,0.755
593.0,0.7669
594.0,0.7613
595.0,0.742
596.0,0.7724
597.0,0.7637
598.0,0.7621
599.0,0.763
600.0,0.7644
601.0,0.7584
602.0,0.7533
603.0,0.7658
604.0,0.7786
605.0,0.7746
606.0,0.7715
607.0,0.7793
608.0,0.7708
609.0,0.7723
610.0,0.7669
611.0,0.771
612.0,0.7688
613.0,0.7592
614.0,0.7489
615.0,0.7653
616.0,0.7402
617.0,0.7388
618.0,0.7673
619.0,0.7595
620.0,0.7643
621.0,0.765
622.0,0.7559
623.0,0.7443
624.0,0.7316
625.0,0.73
626.0,0.7408
627.0,0.7488
628.0,0.696
629.0,0.7299
630.0,0.713
631.0,0.7302
632.0,0.7217
633.0,0.7441
634.0,0.7372
635.0,0.7489
636.0,0.7392
637.0,0.7515
638.0,0.7589
639.0,0.7506
640.0,0.7434
641.0,0.7431
642.0,0.7398
643.0,0.7498
644.0,0.7475
645.0,0.7486
646.0,0.7308
647.0,0.7212
648.0,0.7218
649.0,0.7078
650.0,0.7124
651.0,0.7435
652.0,0.7113
653.0,0.7336
654.0,0.7256
655.0,0.698
656.0,0.619
657.0,0.6357
658.0,0.7128
659.0,0.7181
660.0,0.7212
661.0,0.7263
662.0,0.7275
663.0,0.7132
664.0,0.722
665.0,0.7228
666.0,0.7235
667.0,0.723
668.0,0.7234
669.0,0.7347
670.0,0.7316
671.0,0.7315
672.0,0.7252
673.0,0.7362
674.0,0.7335
675.0,0.7269
676.0,0.7319
677.0,0.7247
678.0,0.7268
679.0,0.7151
680.0,0.7209
681.0,0.7161
682.0,0.7152
683.0,0.7139
684.0,0.7103
685.0,0.7164
686.0,0.7121
687.0,0.4584
688.0,0.544
689.0,0.5462
690.0,0.5752
691.0,0.608
692.0,0.6322
693.0,0.6269
694.0,0.6217
695.0,0.6492
696.0,0.6502
697.0,0.6922
698.0,0.6813
699.0,0.6636
700.0,0.6555
701.0,0.6484
702.0,0.6534
703.0,0.6547
704.0,0.6765
705.0,0.6775
706.0,0.6773
707.0,0.6779
708.0,0.6793
709.0,0.6809
710.0,0.6805
711.0,0.6798
712.0,0.678
713.0,0.671
714.0,0.6736
715.0,0.6517
716.0,0.6519
717.0,0.5602
718.0,0.5138
719.0,0.4701
720.0,0.492
721.0,0.5463
722.0,0.6285
723.0,0.5833
724.0,0.5235
725.0,0.5143
726.0,0.5387
727.0,0.5477
728.0,0.5128
729.0,0.5339
730.0,0.5649
731.0,0.5399
732.0,0.5795
733.0,0.6153
734.0,0.6305
735.0,0.6171
736.0,0.6163
737.0,0.6187
738.0,0.6296
739.0,0.6172
740.0,0.6337
741.0,0.6276
742.0,0.6284
743.0,0.6445
744.0,0.6428
745.0,0.6431
746.0,0.646
747.0,0.6475
748.0,0.6461
749.0,0.6388
750.0,0.6384
751.0,0.6319
752.0,0.6347
753.0,0.6379
754.0,0.6393
755.0,0.6357
756.0,0.6354
757.0,0.6364
758.0,0.6284
759.0,0.6148
760.0,0.0886
761.0,0.04407
762.0,0.2983
763.0,0.1403
764.0,0.2185
765.0,0.2983
766.0,0.3738
767.0,0.4797
768.0,0.5601
769.0,0.5734
770.0,0.5945
771.0,0.6001
772.0,0.6016
773.0,0.6059
774.0,0.603
775.0,0.5984
776.0,0.6057
777.0,0.5978
778.0,0.5941
779.0,0.5946
780.0,0.5913
781.0,0.5919
782.0,0.5956
783.0,0.5853
784.0,0.5881
785.0,0.5837
786.0,0.5901
787.0,0.5791
788.0,0.5716
789.0,0.5713
790.0,0.5552
791.0,0.5609
792.0,0.5569
793.0,0.5478
794.0,0.5581
795.0,0.5673
796.0,0.5486
797.0,0.5492
798.0,0.5665
799.0,0.5626
800.0,0.5525
801.0,0.5505
802.0,0.5489
803.0,0.5446
804.0,0.5455
805.0,0.5442
806.0,0.5601
807.0,0.5532
808.0,0.5537
809.0,0.5429
810.0,0.5381
811.0,0.5381
812.0,0.5218
813.0,0.5104
814.0,0.4462
815.0,0.4436
816.0,0.4125
817.0,0.4204
818.0,0.404
819.0,0.4541
820.0,0.4267
821.0,0.5023
822.0,0.4874
823.0,0.3259
824.0,0.4719
825.0,0.4935
826.0,0.4737
827.0,0.5011
828.0,0.4215
829.0,0.471
830.0,0.4645
831.0,0.4663
832.0,0.4513
833.0,0.4819
834.0,0.4637
835.0,0.5118
836.0,0.4884
837.0,0.5134
838.0,0.4966
839.0,0.5058
840.0,0.5171
841.0,0.5094
842.0,0.511
843.0,0.5113
844.0,0.5039
845.0,0.5213
846.0,0.5191
847.0,0.5096
848.0,0.5062
849.0,0.4918
850.0,0.4712
851.0,0.4986
852.0,0.4953
853.0,0.4769
854.0,0.4116
855.0,0.4525
856.0,0.4944
857.0,0.5056
858.0,0.5018
859.0,0.5023
860.0,0.5033
861.0,0.5005
862.0,0.5084
863.0,0.5204
864.0,0.4944
865.0,0.4901
866.0,0.4407
867.0,0.4599
868.0,0.5005
869.0,0.4901
870.0,0.5041
871.0,0.4972
872.0,0.4955
873.0,0.4945
874.0,0.4886
875.0,0.4787
876.0,0.4837
877.0,0.4886
878.0,0.4938
879.0,0.4863
880.0,0.4758
881.0,0.4686
882.0,0.4786
883.0,0.4803
884.0,0.478
885.0,0.4816
886.0,0.4585
887.0,0.4638
888.0,0.4704
889.0,0.4762
890.0,0.4716
891.0,0.4711
892.0,0.4568
893.0,0.4417
894.0,0.4246
895.0,0.3992
896.0,0.3753
897.0,0.3198
898.0,0.3504
899.0,0.2634
900.0,0.3604
901.0,0.2761
902.0,0.3282
903.0,0.3301
904.0,0.4214
905.0,0.406
906.0,0.3793
907.0,0.3042
908.0,0.3108
909.0,0.3385
910.0,0.296
911.0,0.3177
912.0,0.3327
913.0,0.3002
914.0,0.2983
915.0,0.3235
916.0,0.273
917.0,0.35
918.0,0.2797
919.0,0.3574
920.0,0.3631
921.0,0.3778
922.0,0.3353
923.0,0.3652
924.0,0.3433
925.0,0.3358
926.0,0.3393
927.0,0.3824
928.0,0.2733
929.0,0.2475
930.0,0.1913
931.0,0.1817
932.0,0.1275
933.0,0.1019
934.0,0.05237
935.0,0.1057
936.0,0.06374
937.0,0.06437
938.0,0.08004
939.0,0.176
940.0,0.2141
941.0,0.1584
942.0,0.1853
943.0,0.1194
944.0,0.1281
945.0,0.1639
946.0,0.08002
947.0,0.1638
948.0,0.1199
949.0,0.2226
950.0,0.05676
951.0,0.2198
952.0,0.1136
953.0,0.1497
954.0,0.1869
955.0,0.1518
956.0,0.1495
957.0,0.1134
958.0,0.2163
959.0,0.168
960.0,0.1884
961.0,0.2144
962.0,0.2025
963.0,0.2361
964.0,0.2155
965.0,0.2354
966.0,0.2348
967.0,0.2336
968.0,0.3226
969.0,0.336
970.0,0.3074
971.0,0.356
972.0,0.3397
973.0,0.2916
974.0,0.2762
975.0,0.2883
976.0,0.2715
977.0,0.3135
978.0,0.2959
979.0,0.3113
980.0,0.2919
981.0,0.3541
982.0,0.337
983.0,0.3227
984.0,0.3666
985.0,0.3358
986.0,0.3741
987.0,0.3655
988.0,0.3649
989.0,0.3737
990.0,0.3627
991.0,0.3746
992.0,0.3769
993.0,0.3673
994.0,0.3769
995.0,0.3767
996.0,0.3748
997.0,0.3754
998.0,0.3736
999.0,0.3723
1000.0,0.3694
1001.0,0.3743
1002.0,0.3628
1003.0,0.3676
1004.0,0.3583
1005.0,0.3456
1006.0,0.3589
1007.0,0.3666
1008.0,0.3644
1009.0,0.3622
1010.0,0.3606
1011.0,0.3648
1012.0,0.3614
1013.0,0.364
1014.0,0.3614
1015.0,0.359
1016.0,0.3574
1017.0,0.3582
1018.0,0.357
1019.0,0.349
1020.0,0.3551
1021.0,0.3547
1022.0,0.3517
1023.0,0.3554
1024.0,0.3503
1025.0,0.3553
1026.0,0.3537
1027.0,0.3529
1028.0,0.3521
1029.0,0.3479
1030.0,0.3505
1031.0,0.349
1032.0,0.3481
1033.0,0.3428
1034.0,0.3428
1035.0,0.3439
1036.0,0.3456
1037.0,0.34
1038.0,0.3415
1039.0,0.3413
1040.0,0.3399
1041.0,0.3412
1042.0,0.3388
1043.0,0.3377
1044.0,0.3389
1045.0,0.3343
1046.0,0.3305
1047.0,0.3335
1048.0,0.3353
1049.0,0.334
1050.0,0.3325
1051.0,0.3319
1052.0,0.3305
1053.0,0.3279
1054.0,0.3285
1055.0,0.3286
1056.0,0.3274
1057.0,0.3263
1058.0,0.3182
1059.0,0.3185
1060.0,0.318
1061.0,0.3176
1062.0,0.3191
1063.0,0.3159
1064.0,0.3197
1065.0,0.3172
1066.0,0.3111
1067.0,0.3151
1068.0,0.3081
1069.0,0.2986
1070.0,0.3087
1071.0,0.3139
1072.0,0.3099
1073.0,0.3055
1074.0,0.3139
1075.0,0.2969
1076.0,0.3136
1077.0,0.3072
1078.0,0.3011
1079.0,0.3088
1080.0,0.3025
1081.0,0.2922
1082.0,0.298
1083.0,0.2992
1084.0,0.2912
1085.0,0.3033
1086.0,0.275
1087.0,0.2851
1088.0,0.2986
1089.0,0.2883
1090.0,0.2812
1091.0,0.2973
1092.0,0.2968
1093.0,0.2483
1094.0,0.2712
1095.0,0.259
1096.0,0.247
1097.0,0.29
1098.0,0.2427
1099.0,0.2538
1100.0,0.2344
1101.0,0.2378
1102.0,0.2262
1103.0,0.2234
1104.0,0.2237
1105.0,0.2477
1106.0,0.1838
1107.0,0.2341
1108.0,0.1951
1109.0,0.1961
1110.0,0.2315
1111.0,0.1525
1112.0,0.1948
1113.0,0.1194
1114.0,0.1339
1115.0,0.1108
1116.0,0.08572
1117.0,0.02867
1118.0,0.09415
1119.0,0.04436
1120.0,0.05564
1121.0,0.07525
1122.0,0.02966
1123.0,0.05038
1124.0,0.04249
1125.0,0.05602
1126.0,0.01754
1127.0,0.06337
1128.0,0.03574
1129.0,0.03821
1130.0,0.0244
1131.0,0.1256
1132.0,0.09748
1133.0,0.05886
1134.0,0.0135
1135.0,0.005152
1136.0,0.04808
1137.0,0.1223
1138.0,0.08563
1139.0,0.1335
1140.0,0.1093
1141.0,0.08142
1142.0,0.09482
1143.0,0.1371
1144.0,0.04513
1145.0,0.05682
1146.0,0.06125
1147.0,0.01953
1148.0,0.1185
1149.0,0.09288
1150.0,0.04888
1151.0,0.08493
1152.0,0.1066
1153.0,0.1054
1154.0,0.05486
1155.0,0.1392
1156.0,0.1242
1157.0,0.1412
1158.0,0.1397
1159.0,0.1521
1160.0,0.1285
1161.0,0.1614
1162.0,0.162
1163.0,0.2238
1164.0,0.1901
1165.0,0.1776
1166.0,0.1777
1167.0,0.1944
1168.0,0.1962
1169.0,0.2014
1170.0,0.2203
1171.0,0.2147
1172.0,0.2194
1173.0,0.2199
1174.0,0.1536
1175.0,0.2155
1176.0,0.2386
1177.0,0.2279
1178.0,0.1686
1179.0,0.2406
1180.0,0.2128
1181.0,0.2198
1182.0,0.1489
1183.0,0.2168
1184.0,0.2023
1185.0,0.1944
1186.0,0.2331
1187.0,0.2212
1188.0,0.1511
1189.0,0.206
1190.0,0.2279
1191.0,0.2149
1192.0,0.2313
1193.0,0.2211
1194.0,0.2282
1195.0,0.2149
1196.0,0.2063
1197.0,0.2289
1198.0,0.2087
1199.0,0.1754
1200.0,0.2183
1201.0,0.2098
1202.0,0.2091
1203.0,0.2071
1204.0,0.1801
1205.0,0.2146
1206.0,0.2381
1207.0,0.2083
1208.0,0.2056
1209.0,0.21
1210.0,0.2193
1211.0,0.208
1212.0,0.2045
1213.0,0.2298
1214.0,0.2099
1215.0,0.2057
1216.0,0.2291
1217.0,0.2227
1218.0,0.2273
1219.0,0.2242
1220.0,0.2275
1221.0,0.23
1222.0,0.2238
1223.0,0.2216
1224.0,0.2199
1225.0,0.2285
1226.0,0.2303
1227.0,0.2114
1228.0,0.2317
1229.0,0.2303
1230.0,0.2262
1231.0,0.2333
1232.0,0.2319
1233.0,0.2231
1234.0,0.2333
1235.0,0.2317
1236.0,0.2335
1237.0,0.2298
1238.0,0.2327
1239.0,0.2297
1240.0,0.2306
1241.0,0.2293
1242.0,0.229
1243.0,0.2271
1244.0,0.2287
1245.0,0.2297
1246.0,0.2284
1247.0,0.2274
1248.0,0.2272
1249.0,0.228
1250.0,0.2265
1251.0,0.2235
1252.0,0.2237
1253.0,0.2216
1254.0,0.2192
1255.0,0.2234
1256.0,0.2166
1257.0,0.2153
1258.0,0.2197
1259.0,0.2109
1260.0,0.2121
1261.0,0.1992
1262.0,0.1926
1263.0,0.193
1264.0,0.1768
1265.0,0.1918
1266.0,0.1837
1267.0,0.1875
1268.0,0.177
1269.0,0.1044
1270.0,0.1866
1271.0,0.1986
1272.0,0.1994
1273.0,0.1972
1274.0,0.198
1275.0,0.201
1276.0,0.2032
1277.0,0.2048
1278.0,0.2092
1279.0,0.2072
1280.0,0.2046
1281.0,0.1955
1282.0,0.1887
1283.0,0.2031
1284.0,0.2079
1285.0,0.2093
1286.0,0.2123
1287.0,0.2087
1288.0,0.2088
1289.0,0.2015
1290.0,0.207
1291.0,0.21
1292.0,0.1961
1293.0,0.2056
1294.0,0.2041
1295.0,0.2028
1296.0,0.1928
1297.0,0.1818
1298.0,0.1969
1299.0,0.206
1300.0,0.1723
1301.0,0.178
1302.0,0.1963
1303.0,0.1702
1304.0,0.1432
1305.0,0.1921
1306.0,0.192
1307.0,0.147
1308.0,0.1708
1309.0,0.1903
1310.0,0.1441
1311.0,0.1633
1312.0,0.1586
1313.0,0.1551
1314.0,0.1382
1315.0,0.1359
1316.0,0.1604
1317.0,0.1517
1318.0,0.1657
1319.0,0.127
1320.0,0.1236
1321.0,0.1449
1322.0,0.1459
1323.0,0.1077
1324.0,0.1247
1325.0,0.1579
1326.0,0.1342
1327.0,0.1277
1328.0,0.1094
1329.0,0.08028
1330.0,0.1055
1331.0,0.06143
1332.0,0.06418
1333.0,0.08982
1334.0,0.07726
1335.0,0.1072
1336.0,0.0836
1337.0,0.07335
1338.0,0.07935
1339.0,0.07933
1340.0,0.07779
1341.0,0.07449
1342.0,0.07838
1343.0,0.05025
1344.0,0.0303
1345.0,0.04377
1346.0,0.02002
1347.0,0.02006
1348.0,0.001081
1349.0,0.00409
1350.0,0.004408
1351.0,0.0009056
1352.0,0.0002022
1353.0,8.555e-06
1354.0,3.354e-05
1355.0,1.811e-07
1356.0,4.132e-06
1357.0,6.318e-06
1358.0,2.18e-07
1359.0,2.022e-08
1360.0,8.946e-08
1361.0,5.275e-11
1362.0,1.115e-13
1363.0,1.09e-07
1364.0,4.496e-08
1365.0,2.748e-14
1366.0,5.168e-07
1367.0,2.263e-07
1368.0,1.082e-16
1369.0,1.66e-08
1370.0,7.192e-09
1371.0,3.512e-10
1372.0,1.25e-07
1373.0,3.095e-06
1374.0,1.658e-05
1375.0,2.972e-05
1376.0,3.043e-05
1377.0,1.353e-05
1378.0,0.00014
1379.0,5.676e-06
1380.0,7.464e-06
1381.0,1.807e-07
1382.0,1.086e-07
1383.0,1.465e-09
1384.0,1.778e-08
1385.0,1.194e-07
1386.0,8.819e-08
1387.0,1.566e-05
1388.0,3.139e-07
1389.0,6.259e-05
1390.0,5.354e-05
1391.0,3.482e-05
1392.0,2.179e-06
1393.0,1.247e-05
1394.0,5.083e-06
1395.0,3.216e-08
1396.0,8.303e-11
1397.0,4.696e-06
1398.0,0.0001545
1399.0,9.862e-05
1400.0,3.019e-11
1401.0,1.59e-10
1402.0,0.0003376
1403.0,0.0004077
1404.0,0.000122
1405.0,1.401e-08
1406.0,0.0002965
1407.0,2.781e-05
1408.0,0.0002457
1409.0,7.337e-05
1410.0,6.394e-05
1411.0,0.0003614
1412.0,0.000516
1413.0,0.006262
1414.0,5.126e-05
1415.0,2.332e-05
1416.0,0.01151
1417.0,0.003097
1418.0,0.003438
1419.0,0.0005184
1420.0,0.002091
1421.0,0.002284
1422.0,0.0151
1423.0,0.002831
1424.0,0.005419
1425.0,0.007769
1426.0,0.009302
1427.0,0.01819
1428.0,0.0009983
1429.0,0.01305
1430.0,0.02369
1431.0,0.0264
1432.0,0.0007788
1433.0,0.01629
1434.0,0.008036
1435.0,0.0072
1436.0,0.01517
1437.0,0.01166
1438.0,0.004575
