interpolation:linear
wavelength,value
280.0,5.258e-23
280.5,1.768e-21
281.0,9.574e-21
281.5,3.111e-19
282.0,4.975e-19
282.5,1.16e-18
283.0,3.58e-18
283.5,5.811e-18
284.0,9.515e-17
284.5,2.792e-16
285.0,6.86e-16
285.5,2.927e-15
286.0,1.149e-14
286.5,4.991e-14
287.0,1.414e-13
287.5,5.397e-13
288.0,1.747e-12
288.5,4.987e-12
289.0,1.287e-11
289.5,3.816e-11
290.0,1.053e-10
290.5,2.145e-10
291.0,4.608e-10
291.5,1.327e-09
292.0,2.718e-09
292.5,3.781e-09
293.0,8.027e-09
293.5,1.93e-08
294.0,3.008e-08
294.5,3.717e-08
295.0,6.251e-08
295.5,1.06e-07
296.0,1.989e-07
296.5,2.699e-07
297.0,3.556e-07
297.5,9.142e-07
298.0,1.385e-06
298.5,1.348e-06
299.0,2.873e-06
299.5,4.475e-06
300.0,4.735e-06
300.5,6.579e-06
301.0,1.109e-05
301.5,1.651e-05
302.0,1.361e-05
302.5,2.605e-05
303.0,4.543e-05
303.5,5.666e-05
304.0,5.41e-05
304.5,8.464e-05
305.0,0.0001382
305.5,0.0001664
306.0,0.0001643
306.5,0.0002118
307.0,0.0003406
307.5,0.0004915
308.0,0.0005259
308.5,0.0006476
309.0,0.0007217
309.5,0.001007
310.0,0.001108
310.5,0.001878
311.0,0.00254
311.5,0.002532
312.0,0.00298
312.5,0.00404
313.0,0.004637
313.5,0.004269
314.0,0.006081
314.5,0.006415
315.0,0.008692
315.5,0.006678
316.0,0.006717
316.5,0.0109
317.0,0.01349
317.5,0.01355
318.0,0.01149
318.5,0.01676
319.0,0.02156
319.5,0.01541
320.0,0.01825
320.5,0.02692
321.0,0.02781
321.5,0.02706
322.0,0.02457
322.5,0.02154
323.0,0.0238
323.5,0.03403
324.0,0.04047
324.5,0.03912
325.0,0.03047
325.5,0.04264
326.0,0.05655
326.5,0.0602
327.0,0.05864
327.5,0.05502
328.0,0.04506
328.5,0.05235
329.0,0.06774
329.5,0.07872
330.0,0.0779
330.5,0.05871
331.0,0.05859
331.5,0.06227
332.0,0.07172
332.5,0.07303
333.0,0.0716
333.5,0.0618
334.0,0.06282
334.5,0.07649
335.0,0.07413
335.5,0.08787
336.0,0.0608
336.5,0.0691
337.0,0.05543
337.5,0.06837
338.0,0.06977
338.5,0.08218
339.0,0.0816
339.5,0.07836
340.0,0.09035
340.5,0.08181
341.0,0.08111
341.5,0.07489
342.0,0.08966
342.5,0.08404
343.0,0.09212
343.5,0.08655
344.0,0.06292
344.5,0.06438
345.0,0.08577
345.5,0.08784
346.0,0.07483
346.5,0.08486
347.0,0.09086
347.5,0.07341
348.0,0.08403
348.5,0.0842
349.0,0.07822
349.5,0.07746
350.0,0.09588
350.5,0.1012
351.0,0.09024
351.5,0.08733
352.0,0.09411
352.5,0.07365
353.0,0.09296
353.5,0.09955
354.0,0.1035
354.5,0.1049
355.0,0.1046
355.5,0.09457
356.0,0.09905
356.5,0.08461
357.0,0.06992
357.5,0.08565
358.0,0.06793
358.5,0.05808
359.0,0.08123
359.5,0.1034
360.0,0.1097
360.5,0.08778
361.0,0.08012
361.5,0.09239
362.0,0.08
362.5,0.1109
363.0,0.09966
363.5,0.09188
364.0,0.1125
364.5,0.09619
365.0,0.09802
365.5,0.1231
366.0,0.1306
366.5,0.1228
367.0,0.1197
367.5,0.1243
368.0,0.1088
368.5,0.1099
369.0,0.1188
369.5,0.1267
370.0,0.1352
370.5,0.105
371.0,0.1123
371.5,0.1406
372.0,0.09337
372.5,0.112
373.0,0.1141
373.5,0.07429
374.0,0.108
374.5,0.08955
375.0,0.08711
375.5,0.1301
376.0,0.1079
376.5,0.1119
377.0,0.1186
377.5,0.1389
378.0,0.1506
378.5,0.1424
379.0,0.1176
379.5,0.1075
380.0,0.1118
380.5,0.1356
381.0,0.136
381.5,0.108
382.0,0.09599
382.5,0.08194
383.0,0.07594
383.5,0.07322
384.0,0.08084
384.5,0.119
385.0,0.1181
385.5,0.1101
386.0,0.09442
386.5,0.1242
387.0,0.1033
387.5,0.1161
388.0,0.1073
388.5,0.1061
389.0,0.1147
389.5,0.139
390.0,0.1397
390.5,0.1286
391.0,0.1516
391.5,0.1547
392.0,0.1304
392.5,0.1169
393.0,0.06512
393.5,0.04739
394.0,0.09651
394.5,0.1228
395.0,0.15
395.5,0.1525
396.0,0.1323
396.5,0.07747
397.0,0.0582
397.5,0.1185
398.0,0.166
398.5,0.1717
399.0,0.1862
399.5,0.1858
400.0,0.193
401.0,0.1932
402.0,0.2043
403.0,0.1946
404.0,0.1919
405.0,0.1922
406.0,0.1895
407.0,0.1869
408.0,0.1943
409.0,0.2083
410.0,0.1824
411.0,0.198
412.0,0.2133
413.0,0.2082
414.0,0.2112
415.0,0.2122
416.0,0.2164
417.0,0.2114
418.0,0.2078
419.0,0.211
420.0,0.2104
421.0,0.2205
422.0,0.2099
423.0,0.2054
424.0,0.2174
425.0,0.2174
426.0,0.2124
427.0,0.2088
428.0,0.2037
429.0,0.1935
430.0,0.1697
431.0,0.1682
432.0,0.2177
433.0,0.2193
434.0,0.2038
435.0,0.2131
436.0,0.2407
437.0,0.2381
438.0,0.2172
439.0,0.2243
440.0,0.2318
441.0,0.2407
442.0,0.2585
443.0,0.2516
444.0,0.2577
445.0,0.2523
446.0,0.2417
447.0,0.262
448.0,0.2659
449.0,0.2678
450.0,0.2758
451.0,0.2864
452.0,0.2763
453.0,0.2604
454.0,0.2725
455.0,0.2743
456.0,0.2811
457.0,0.2859
458.0,0.2758
459.0,0.2745
460.0,0.2751
461.0,0.2816
462.0,0.2844
463.0,0.2826
464.0,0.279
465.0,0.2765
466.0,0.2798
467.0,0.2746
468.0,0.2779
469.0,0.2794
470.0,0.2704
471.0,0.2703
472.0,0.2849
473.0,0.2813
474.0,0.2812
475.0,0.283
476.0,0.2736
477.0,0.2737
478.0,0.2815
479.0,0.2803
480.0,0.2813
481.0,0.2872
482.0,0.2895
483.0,0.287
484.0,0.2818
485.0,0.2692
486.0,0.2361
487.0,0.248
488.0,0.2721
489.0,0.2728
490.0,0.2875
491.0,0.283
492.0,0.2674
493.0,0.2764
494.0,0.2793
495.0,0.2819
496.0,0.2837
497.0,0.2881
498.0,0.2745
499.0,0.2776
500.0,0.269
501.0,0.2634
502.0,0.2585
503.0,0.2679
504.0,0.2578
505.0,0.2697
506.0,0.2784
507.0,0.2652
508.0,0.2581
509.0,0.2662
510.0,0.2655
511.0,0.2734
512.0,0.2768
513.0,0.2621
514.0,0.2605
515.0,0.2579
516.0,0.2571
517.0,0.2286
518.0,0.2403
519.0,0.252
520.0,0.261
521.0,0.2633
522.0,0.2632
523.0,0.2582
524.0,0.2667
525.0,0.2689
526.0,0.2565
527.0,0.241
528.0,0.2542
529.0,0.2674
530.0,0.2632
531.0,0.2667
532.0,0.2574
533.0,0.2498
534.0,0.2575
535.0,0.2636
536.0,0.2664
537.0,0.2563
538.0,0.261
539.0,0.2588
540.0,0.2479
541.0,0.2484
542.0,0.2556
543.0,0.2537
544.0,0.2572
545.0,0.2566
546.0,0.2569
547.0,0.2575
548.0,0.2549
549.0,0.2559
550.0,0.259
551.0,0.256
552.0,0.2578
553.0,0.253
554.0,0.2589
555.0,0.2592
556.0,0.2556
557.0,0.2473
558.0,0.2449
559.0,0.2397
560.0,0.2423
561.0,0.2449
562.0,0.2424
563.0,0.2482
564.0,0.2408
565.0,0.2381
566.0,0.2341
567.0,0.2378
568.0,0.2338
569.0,0.2248
570.0,0.2251
571.0,0.2246
572.0,0.2276
573.0,0.2296
574.0,0.2283
575.0,0.2232
576.0,0.2212
577.0,0.224
578.0,0.2216
579.0,0.2242
580.0,0.2311
581.0,0.2343
582.0,0.2405
583.0,0.2425
584.0,0.2456
585.0,0.2402
586.0,0.2354
587.0,0.2395
588.0,0.2294
589.0,0.1951
590.0,0.2045
591.0,0.2215
592.0,0.2157
593.0,0.2227
594.0,0.2197
595.0,0.2108
596.0,0.2262
597.0,0.2217
598.0,0.2233
599.0,0.2244
600.0,0.2264
601.0,0.2259
602.0,0.2246
603.0,0.2291
604.0,0.2333
605.0,0.2325
606.0,0.2323
607.0,0.2355
608.0,0.2337
609.0,0.2348
610.0,0.2338
611.0,0.2357
612.0,0.2355
613.0,0.233
614.0,0.2305
615.0,0.2362
616.0,0.229
617.0,0.229
618.0,0.2382
619.0,0.2361
620.0,0.2376
621.0,0.2373
622.0,0.2342
623.0,0.2303
624.0,0.2268
625.0,0.2261
626.0,0.2292
627.0,0.23
628.0,0.1944
629.0,0.2173
630.0,0.2115
631.0,0.2233
632.0,0.222
633.0,0.2316
634.0,0.2317
635.0,0.2366
636.0,0.2348
637.0,0.2397
638.0,0.2437
639.0,0.2419
640.0,0.2406
641.0,0.2413
642.0,0.2411
643.0,0.2445
644.0,0.2447
645.0,0.2445
646.0,0.2363
647.0,0.2275
648.0,0.2286
649.0,0.2229
650.0,0.2318
651.0,0.2431
652.0,0.226
653.0,0.2405
654.0,0.2383
655.0,0.2258
656.0,0.2027
657.0,0.2087
658.0,0.2364
659.0,0.2391
660.0,0.2408
661.0,0.2431
662.0,0.2424
663.0,0.238
664.0,0.2428
665.0,0.2446
666.0,0.2453
667.0,0.2459
668.0,0.2469
669.0,0.2513
670.0,0.2506
671.0,0.251
672.0,0.2492
673.0,0.2533
674.0,0.2528
675.0,0.2509
676.0,0.253
677.0,0.2508
678.0,0.2518
679.0,0.248
680.0,0.2502
681.0,0.2487
682.0,0.2485
683.0,0.2481
684.0,0.2468
685.0,0.2493
686.0,0.2474
687.0,0.08622
688.0,0.13
689.0,0.1316
690.0,0.1501
691.0,0.1732
692.0,0.1929
693.0,0.1911
694.0,0.1928
695.0,0.2118
696.0,0.213
697.0,0.2381
698.0,0.2341
699.0,0.2199
700.0,0.2168
701.0,0.2106
702.0,0.2156
703.0,0.2174
704.0,0.2296
705.0,0.2297
706.0,0.2314
707.0,0.2325
708.0,0.2326
709.0,0.2368
710.0,0.2347
711.0,0.2358
712.0,0.237
713.0,0.2327
714.0,0.2343
715.0,0.2231
716.0,0.2224
717.0,0.1627
718.0,0.1479
719.0,0.1332
720.0,0.1362
721.0,0.1664
722.0,0.2085
723.0,0.1855
724.0,0.156
725.0,0.1505
726.0,0.1582
727.0,0.1678
728.0,0.149
729.0,0.1645
730.0,0.1707
731.0,0.162
732.0,0.1846
733.0,0.2049
734.0,0.2134
735.0,0.207
736.0,0.2058
737.0,0.207
738.0,0.2191
739.0,0.2152
740.0,0.2233
741.0,0.2226
742.0,0.2246
743.0,0.2308
744.0,0.2312
745.0,0.2322
746.0,0.2333
747.0,0.234
748.0,0.2337
749.0,0.2311
750.0,0.231
751.0,0.2288
752.0,0.2299
753.0,0.2312
754.0,0.2317
755.0,0.2303
756.0,0.2304
757.0,0.2307
758.0,0.2276
759.0,0.2167
760.0,0.003912
761.0,0.001582
762.0,0.03989
763.0,0.008286
764.0,0.01984
765.0,0.03969
766.0,0.07076
767.0,0.1227
768.0,0.1781
769.0,0.1914
770.0,0.2093
771.0,0.2163
772.0,0.2185
773.0,0.2204
774.0,0.2197
775.0,0.2183
776.0,0.2211
777.0,0.2183
778.0,0.2169
779.0,0.2171
780.0,0.216
781.0,0.2163
782.0,0.2178
783.0,0.2141
784.0,0.2154
785.0,0.2133
786.0,0.2153
787.0,0.2069
788.0,0.2023
789.0,0.2023
790.0,0.1913
791.0,0.1988
792.0,0.1983
793.0,0.1945
794.0,0.2035
795.0,0.2053
796.0,0.1907
797.0,0.1899
798.0,0.204
799.0,0.2013
800.0,0.1959
801.0,0.1931
802.0,0.1922
803.0,0.1895
804.0,0.1909
805.0,0.1928
806.0,0.2027
807.0,0.1994
808.0,0.1997
809.0,0.1926
810.0,0.1893
811.0,0.1864
812.0,0.174
813.0,0.1691
814.0,0.1356
815.0,0.1362
816.0,0.1244
817.0,0.1269
818.0,0.1193
819.0,0.1442
820.0,0.1324
821.0,0.1727
822.0,0.1648
823.0,0.08685
824.0,0.1528
825.0,0.1702
826.0,0.1573
827.0,0.1723
828.0,0.1285
829.0,0.1578
830.0,0.1548
831.0,0.155
832.0,0.147
833.0,0.1641
834.0,0.1537
835.0,0.1823
836.0,0.1644
837.0,0.1826
838.0,0.1722
839.0,0.1796
840.0,0.1848
841.0,0.1801
842.0,0.1838
843.0,0.1873
844.0,0.1829
845.0,0.1914
846.0,0.1912
847.0,0.1887
848.0,0.186
849.0,0.1807
850.0,0.1732
851.0,0.1818
852.0,0.1813
853.0,0.1758
854.0,0.1507
855.0,0.1671
856.0,0.182
857.0,0.1871
858.0,0.1852
859.0,0.1861
860.0,0.1869
861.0,0.1858
862.0,0.1889
863.0,0.1934
864.0,0.1838
865.0,0.1824
866.0,0.164
867.0,0.1712
868.0,0.1863
869.0,0.1826
870.0,0.1878
871.0,0.1852
872.0,0.1847
873.0,0.1843
874.0,0.1822
875.0,0.1784
876.0,0.1802
877.0,0.1821
878.0,0.1838
879.0,0.181
880.0,0.1772
881.0,0.1738
882.0,0.1772
883.0,0.1786
884.0,0.1774
885.0,0.1787
886.0,0.1677
887.0,0.1716
888.0,0.1731
889.0,0.1771
890.0,0.1728
891.0,0.1739
892.0,0.1653
893.0,0.1571
894.0,0.1442
895.0,0.1275
896.0,0.1181
897.0,0.09245
898.0,0.1046
899.0,0.07014
900.0,0.113
901.0,0.07357
902.0,0.09808
903.0,0.0945
904.0,0.1424
905.0,0.1349
906.0,0.1234
907.0,0.08462
908.0,0.09008
909.0,0.1024
910.0,0.08054
911.0,0.09499
912.0,0.09836
913.0,0.08121
914.0,0.08285
915.0,0.08823
916.0,0.07376
917.0,0.1034
918.0,0.07453
919.0,0.1091
920.0,0.1197
921.0,0.1231
922.0,0.1024
923.0,0.12
924.0,0.1019
925.0,0.1003
926.0,0.09961
927.0,0.1187
928.0,0.06586
929.0,0.05513
930.0,0.03505
931.0,0.03248
932.0,0.01701
933.0,0.01166
934.0,0.003018
935.0,0.01341
936.0,0.005764
937.0,0.005864
938.0,0.007994
939.0,0.03123
940.0,0.04323
941.0,0.02604
942.0,0.03291
943.0,0.01715
944.0,0.02281
945.0,0.02834
946.0,0.008871
947.0,0.02683
948.0,0.01927
949.0,0.04272
950.0,0.005009
951.0,0.0421
952.0,0.01572
953.0,0.02476
954.0,0.03583
955.0,0.02581
956.0,0.03305
957.0,0.01564
958.0,0.0518
959.0,0.03289
960.0,0.03708
961.0,0.04824
962.0,0.04565
963.0,0.05894
964.0,0.05234
965.0,0.05773
966.0,0.05794
967.0,0.05643
968.0,0.1041
969.0,0.1032
970.0,0.09305
971.0,0.1195
972.0,0.1108
973.0,0.08374
974.0,0.07918
975.0,0.08532
976.0,0.07368
977.0,0.1003
978.0,0.08835
979.0,0.09563
980.0,0.08862
981.0,0.119
982.0,0.1091
983.0,0.1023
984.0,0.1293
985.0,0.1081
986.0,0.136
987.0,0.1296
988.0,0.1299
989.0,0.1386
990.0,0.1287
991.0,0.1385
992.0,0.1398
993.0,0.1326
994.0,0.1404
995.0,0.141
996.0,0.1396
997.0,0.1402
998.0,0.1392
999.0,0.1389
1000.0,0.1367
1001.0,0.1398
1002.0,0.1307
1003.0,0.137
1004.0,0.1322
1005.0,0.1293
1006.0,0.1335
1007.0,0.1367
1008.0,0.1351
1009.0,0.1334
1010.0,0.1323
1011.0,0.1362
1012.0,0.1341
1013.0,0.1362
1014.0,0.1352
1015.0,0.1342
1016.0,0.1335
1017.0,0.1336
1018.0,0.1337
1019.0,0.1288
1020.0,0.1327
1021.0,0.1329
1022.0,0.1311
1023.0,0.1324
1024.0,0.1287
1025.0,0.133
1026.0,0.1319
1027.0,0.1317
1028.0,0.1313
1029.0,0.1295
1030.0,0.1311
1031.0,0.1303
1032.0,0.1301
1033.0,0.1281
1034.0,0.1282
1035.0,0.1286
1036.0,0.129
1037.0,0.127
1038.0,0.1275
1039.0,0.1273
1040.0,0.1267
1041.0,0.1271
1042.0,0.1261
1043.0,0.1256
1044.0,0.1259
1045.0,0.1241
1046.0,0.1226
1047.0,0.1235
1048.0,0.124
1049.0,0.1234
1050.0,0.1227
1051.0,0.1223
1052.0,0.1216
1053.0,0.1203
1054.0,0.1203
1055.0,0.1201
1056.0,0.1193
1057.0,0.1186
1058.0,0.1154
1059.0,0.1152
1060.0,0.1149
1061.0,0.1145
1062.0,0.1148
1063.0,0.1134
1064.0,0.1148
1065.0,0.1132
1066.0,0.1116
1067.0,0.1128
1068.0,0.1098
1069.0,0.1069
1070.0,0.1101
1071.0,0.1135
1072.0,0.1109
1073.0,0.1096
1074.0,0.1144
1075.0,0.1045
1076.0,0.1141
1077.0,0.1097
1078.0,0.1063
1079.0,0.1132
1080.0,0.1079
1081.0,0.1021
1082.0,0.1076
1083.0,0.1092
1084.0,0.101
1085.0,0.1085
1086.0,0.09325
1087.0,0.09996
1088.0,0.1084
1089.0,0.1001
1090.0,0.09616
1091.0,0.1068
1092.0,0.1072
1093.0,0.07984
1094.0,0.09666
1095.0,0.08309
1096.0,0.07684
1097.0,0.1048
1098.0,0.07373
1099.0,0.07828
1100.0,0.06906
1101.0,0.07167
1102.0,0.06539
1103.0,0.06264
1104.0,0.06318
1105.0,0.07537
1106.0,0.04282
1107.0,0.06911
1108.0,0.04961
1109.0,0.05047
1110.0,0.06573
1111.0,0.03261
1112.0,0.05054
1113.0,0.02196
1114.0,0.02458
1115.0,0.01931
1116.0,0.01126
1117.0,0.001722
1118.0,0.01284
1119.0,0.003723
1120.0,0.004246
1121.0,0.006639
1122.0,0.001319
1123.0,0.003887
1124.0,0.00325
1125.0,0.00487
1126.0,0.0005006
1127.0,0.005612
1128.0,0.001752
1129.0,0.001946
1130.0,0.001229
1131.0,0.01719
1132.0,0.01195
1133.0,0.004427
1134.0,0.0003779
1135.0,0.0001833
1136.0,0.002857
1137.0,0.01564
1138.0,0.01005
1139.0,0.02456
1140.0,0.01666
1141.0,0.009715
1142.0,0.01261
1143.0,0.02256
1144.0,0.004281
1145.0,0.004163
1146.0,0.004473
1147.0,0.0005379
1148.0,0.01845
1149.0,0.01228
1150.0,0.005558
1151.0,0.01004
1152.0,0.01521
1153.0,0.01738
1154.0,0.004597
1155.0,0.0256
1156.0,0.02091
1157.0,0.02905
1158.0,0.02857
1159.0,0.03255
1160.0,0.02704
1161.0,0.04001
1162.0,0.0393
1163.0,0.06745
1164.0,0.05284
1165.0,0.04504
1166.0,0.04908
1167.0,0.05578
1168.0,0.0557
1169.0,0.05804
1170.0,0.06774
1171.0,0.06605
1172.0,0.07074
1173.0,0.06768
1174.0,0.03883
1175.0,0.06955
1176.0,0.08345
1177.0,0.07522
1178.0,0.0488
1179.0,0.08392
1180.0,0.06745
1181.0,0.06978
1182.0,0.03898
1183.0,0.07011
1184.0,0.0624
1185.0,0.05728
1186.0,0.07801
1187.0,0.07088
1188.0,0.03768
1189.0,0.06563
1190.0,0.07727
1191.0,0.06634
1192.0,0.07906
1193.0,0.07328
1194.0,0.0772
1195.0,0.06826
1196.0,0.06334
1197.0,0.07882
1198.0,0.07066
1199.0,0.05073
1200.0,0.07255
1201.0,0.0662
1202.0,0.06944
1203.0,0.06624
1204.0,0.05455
1205.0,0.07337
1206.0,0.08557
1207.0,0.06766
1208.0,0.0695
1209.0,0.07108
1210.0,0.0764
1211.0,0.0697
1212.0,0.06288
1213.0,0.07972
1214.0,0.06632
1215.0,0.06481
1216.0,0.08038
1217.0,0.07648
1218.0,0.07952
1219.0,0.07723
1220.0,0.07982
1221.0,0.08215
1222.0,0.07912
1223.0,0.07747
1224.0,0.07465
1225.0,0.08097
1226.0,0.08329
1227.0,0.07128
1228.0,0.08465
1229.0,0.08335
1230.0,0.08089
1231.0,0.08651
1232.0,0.08587
1233.0,0.07846
1234.0,0.08757
1235.0,0.08622
1236.0,0.08748
1237.0,0.08461
1238.0,0.08721
1239.0,0.08604
1240.0,0.08664
1241.0,0.08492
1242.0,0.0859
1243.0,0.08528
1244.0,0.08546
1245.0,0.08607
1246.0,0.08563
1247.0,0.08491
1248.0,0.08417
1249.0,0.08504
1250.0,0.08411
1251.0,0.08217
1252.0,0.08327
1253.0,0.08066
1254.0,0.07844
1255.0,0.08268
1256.0,0.07682
1257.0,0.07569
1258.0,0.0799
1259.0,0.07169
1260.0,0.07271
1261.0,0.06244
1262.0,0.05751
1263.0,0.05748
1264.0,0.04664
1265.0,0.05721
1266.0,0.05115
1267.0,0.05475
1268.0,0.04772
1269.0,0.01226
1270.0,0.05347
1271.0,0.06315
1272.0,0.06385
1273.0,0.06249
1274.0,0.06367
1275.0,0.06565
1276.0,0.06756
1277.0,0.06976
1278.0,0.07349
1279.0,0.07292
1280.0,0.07199
1281.0,0.06992
1282.0,0.06938
1283.0,0.0743
1284.0,0.07574
1285.0,0.07661
1286.0,0.07871
1287.0,0.07549
1288.0,0.0762
1289.0,0.06981
1290.0,0.07564
1291.0,0.07745
1292.0,0.06598
1293.0,0.07444
1294.0,0.07366
1295.0,0.07071
1296.0,0.0637
1297.0,0.05767
1298.0,0.06798
1299.0,0.07505
1300.0,0.05407
1301.0,0.05701
1302.0,0.06816
1303.0,0.05401
1304.0,0.03831
1305.0,0.06624
1306.0,0.06493
1307.0,0.04184
1308.0,0.05544
1309.0,0.06266
1310.0,0.04007
1311.0,0.0512
1312.0,0.04916
1313.0,0.04552
1314.0,0.03764
1315.0,0.03576
1316.0,0.04883
1317.0,0.04482
1318.0,0.05232
1319.0,0.03169
1320.0,0.03205
1321.0,0.04088
1322.0,0.03941
1323.0,0.02272
1324.0,0.03156
1325.0,0.0465
1326.0,0.03563
1327.0,0.03257
1328.0,0.0254
1329.0,0.01369
1330.0,0.02101
1331.0,0.007866
1332.0,0.00908
1333.0,0.01354
1334.0,0.01521
1335.0,0.02164
1336.0,0.014
1337.0,0.01215
1338.0,0.0127
1339.0,0.01307
1340.0,0.01418
1341.0,0.01029
1342.0,0.01139
1343.0,0.003939
1344.0,0.002673
1345.0,0.003328
1346.0,0.0005885
1347.0,0.000472
1348.0,7.419e-06
1349.0,3.155e-05
1350.0,3.631e-05
1351.0,4.295e-06
1352.0,9.634e-07
1353.0,4.877e-08
1354.0,1.688e-07
1355.0,1.348e-09
1356.0,2.363e-08
1357.0,3.589e-08
1358.0,1.583e-09
1359.0,1.994e-10
1360.0,7.205e-10
1361.0,8.059e-13
1362.0,2.205e-15
1363.0,9.687e-10
1364.0,3.999e-10
1365.0,7.697e-16
1366.0,4.198e-09
1367.0,1.714e-09
1368.0,5.943e-18
1369.0,1.474e-10
1370.0,7.258e-11
1371.0,4.114e-12
1372.0,9.294e-10
1373.0,1.873e-08
1374.0,8.697e-08
1375.0,1.576e-07
1376.0,1.428e-07
1377.0,6.51e-08
1378.0,6.343e-07
1379.0,2.728e-08
1380.0,3.882e-08
1381.0,1.011e-09
1382.0,8.146e-10
1383.0,1.218e-11
1384.0,1.597e-10
1385.0,7.637e-10
1386.0,7.182e-10
1387.0,8.687e-08
1388.0,1.712e-09
1389.0,2.941e-07
1390.0,2.521e-07
1391.0,1.678e-07
1392.0,1.089e-08
1393.0,5.792e-08
1394.0,2.963e-08
1395.0,2.171e-10
1396.0,1.049e-12
1397.0,2.273e-08
1398.0,6.716e-07
1399.0,4.254e-07
1400.0,4.487e-13
1401.0,1.861e-12
1402.0,1.445e-06
1403.0,1.613e-06
1404.0,4.697e-07
1405.0,1.028e-10
1406.0,1.169e-06
1407.0,1.191e-07
1408.0,9.557e-07
1409.0,3.137e-07
1410.0,2.588e-07
1411.0,1.419e-06
