interpolation:linear
wavelength,value
280.0,3.093e-20
280.5,8.85e-19
281.0,4.534e-18
281.5,4.269e-19
282.0,1.79e-18
282.5,5.026e-18
283.0,1.669e-17
283.5,2.751e-17
284.0,4.355e-16
284.5,1.232e-15
285.0,2.079e-15
285.5,1.23e-14
286.0,5.179e-14
286.5,2.45e-13
287.0,7.191e-13
287.5,2.811e-12
288.0,8.626e-12
288.5,3.368e-11
289.0,1.117e-10
289.5,4.14e-10
290.0,1.339e-09
290.5,3.088e-09
291.0,7.617e-09
291.5,2.581e-08
292.0,7.12e-08
292.5,1.126e-07
293.0,2.815e-07
293.5,8.496e-07
294.0,1.563e-06
294.5,2.061e-06
295.0,4.073e-06
295.5,1.013e-05
296.0,1.948e-05
296.5,2.715e-05
297.0,3.661e-05
297.5,9.751e-05
298.0,0.0001527
298.5,0.0001529
299.0,0.0003353
299.5,0.0005505
300.0,0.0006022
300.5,0.0008672
301.0,0.001554
301.5,0.002457
302.0,0.002095
302.5,0.003975
303.0,0.006871
303.5,0.008437
304.0,0.007787
304.5,0.01109
305.0,0.01574
305.5,0.0173
306.0,0.01648
306.5,0.01999
307.0,0.028
307.5,0.03524
308.0,0.03689
308.5,0.04242
309.0,0.04102
309.5,0.04523
310.0,0.04466
310.5,0.0717
311.0,0.08871
311.5,0.08509
312.0,0.08243
312.5,0.09821
313.0,0.1053
313.5,0.1033
314.0,0.126
314.5,0.108
315.0,0.141
315.5,0.1199
316.0,0.1019
316.5,0.1428
317.0,0.1774
317.5,0.1858
318.0,0.1426
318.5,0.1716
319.0,0.2004
319.5,0.1675
320.0,0.2032
320.5,0.2463
321.0,0.213
321.5,0.2037
322.0,0.2239
322.5,0.1944
323.0,0.1898
323.5,0.2288
324.0,0.2661
324.5,0.2724
325.0,0.2379
325.5,0.3009
326.0,0.366
326.5,0.3626
327.0,0.3628
327.5,0.3522
328.0,0.3181
328.5,0.3285
329.0,0.3879
329.5,0.4384
330.0,0.4437
330.5,0.3589
331.0,0.367
331.5,0.37
332.0,0.3951
332.5,0.3888
333.0,0.3888
333.5,0.3549
334.0,0.3641
334.5,0.416
335.0,0.3887
335.5,0.454
336.0,0.3141
336.5,0.3688
337.0,0.3038
337.5,0.3784
338.0,0.3665
338.5,0.4228
339.0,0.4184
339.5,0.4025
340.0,0.4731
340.5,0.4261
341.0,0.4156
341.5,0.3815
342.0,0.4558
342.5,0.4264
343.0,0.469
343.5,0.4417
344.0,0.3263
344.5,0.3297
345.0,0.4361
345.5,0.4451
346.0,0.3782
346.5,0.4282
347.0,0.4597
347.5,0.3717
348.0,0.4237
348.5,0.4234
349.0,0.3927
349.5,0.3888
350.0,0.4808
350.5,0.5072
351.0,0.4531
351.5,0.4405
352.0,0.473
352.5,0.369
353.0,0.4647
353.5,0.4969
354.0,0.5158
354.5,0.5231
355.0,0.5214
355.5,0.471
356.0,0.4927
356.5,0.4207
357.0,0.3476
357.5,0.4256
358.0,0.3373
358.5,0.2882
359.0,0.4032
359.5,0.5138
360.0,0.5447
360.5,0.4353
361.0,0.3968
361.5,0.4568
362.0,0.395
362.5,0.5466
363.0,0.4909
363.5,0.4521
364.0,0.5529
364.5,0.4726
365.0,0.4813
365.5,0.6041
366.0,0.64
366.5,0.6013
367.0,0.5856
367.5,0.6077
368.0,0.5318
368.5,0.5366
369.0,0.5795
369.5,0.6177
370.0,0.6584
370.5,0.511
371.0,0.546
371.5,0.6832
372.0,0.4534
372.5,0.5437
373.0,0.553
373.5,0.3598
374.0,0.5228
374.5,0.433
375.0,0.4209
375.5,0.6285
376.0,0.521
376.5,0.5399
377.0,0.5716
377.5,0.6688
378.0,0.725
378.5,0.6853
379.0,0.5656
379.5,0.5167
380.0,0.5372
380.5,0.6506
381.0,0.652
381.5,0.5168
382.0,0.459
382.5,0.3912
383.0,0.3622
383.5,0.3489
384.0,0.3848
384.5,0.5661
385.0,0.5613
385.5,0.5228
386.0,0.4478
386.5,0.5882
387.0,0.4888
387.5,0.549
388.0,0.5069
388.5,0.5011
389.0,0.5409
389.5,0.6551
390.0,0.6575
390.5,0.6051
391.0,0.7123
391.5,0.7265
392.0,0.612
392.5,0.5479
393.0,0.3049
393.5,0.2216
394.0,0.4509
394.5,0.5733
395.0,0.6996
395.5,0.7107
396.0,0.6162
396.5,0.3602
397.0,0.2703
397.5,0.5498
398.0,0.77
398.5,0.7959
399.0,0.8618
399.5,0.859
400.0,0.892
401.0,0.9062
402.0,0.956
403.0,0.9081
404.0,0.8942
405.0,0.894
406.0,0.8795
407.0,0.8652
408.0,0.8991
409.0,0.9623
410.0,0.8408
411.0,0.9107
412.0,0.978
413.0,0.9538
414.0,0.9654
415.0,0.9679
416.0,0.9847
417.0,0.9605
418.0,0.9428
419.0,0.9551
420.0,0.9509
421.0,0.9948
422.0,0.9455
423.0,0.9235
424.0,0.9768
425.0,0.975
426.0,0.9495
427.0,0.9318
428.0,0.9077
429.0,0.8596
430.0,0.7522
431.0,0.7456
432.0,0.9626
433.0,0.9678
434.0,0.8987
435.0,0.9386
436.0,1.057
437.0,1.043
438.0,0.9496
439.0,0.9824
440.0,1.014
441.0,1.05
442.0,1.126
443.0,1.097
444.0,1.121
445.0,1.097
446.0,1.046
447.0,1.131
448.0,1.149
449.0,1.153
450.0,1.185
451.0,1.229
452.0,1.184
453.0,1.113
454.0,1.162
455.0,1.169
456.0,1.197
457.0,1.217
458.0,1.175
459.0,1.169
460.0,1.172
461.0,1.199
462.0,1.208
463.0,1.2
464.0,1.18
465.0,1.165
466.0,1.176
467.0,1.154
468.0,1.168
469.0,1.174
470.0,1.137
471.0,1.135
472.0,1.196
473.0,1.181
474.0,1.183
475.0,1.193
476.0,1.158
477.0,1.161
478.0,1.193
479.0,1.186
480.0,1.188
481.0,1.21
482.0,1.216
483.0,1.2
484.0,1.176
485.0,1.12
486.0,0.9787
487.0,1.025
488.0,1.125
489.0,1.129
490.0,1.187
491.0,1.167
492.0,1.102
493.0,1.138
494.0,1.149
495.0,1.159
496.0,1.166
497.0,1.184
498.0,1.129
499.0,1.143
500.0,1.11
501.0,1.09
502.0,1.075
503.0,1.119
504.0,1.093
505.0,1.13
506.0,1.167
507.0,1.11
508.0,1.075
509.0,1.105
510.0,1.099
511.0,1.128
512.0,1.14
513.0,1.079
514.0,1.072
515.0,1.061
516.0,1.058
517.0,0.9403
518.0,0.9886
519.0,1.037
520.0,1.075
521.0,1.085
522.0,1.086
523.0,1.067
524.0,1.105
525.0,1.118
526.0,1.068
527.0,1.007
528.0,1.065
529.0,1.123
530.0,1.107
531.0,1.124
532.0,1.085
533.0,1.053
534.0,1.084
535.0,1.108
536.0,1.118
537.0,1.074
538.0,1.093
539.0,1.083
540.0,1.039
541.0,1.046
542.0,1.079
543.0,1.067
544.0,1.086
545.0,1.083
546.0,1.088
547.0,1.087
548.0,1.074
549.0,1.077
550.0,1.09
551.0,1.077
552.0,1.084
553.0,1.065
554.0,1.09
555.0,1.092
556.0,1.078
557.0,1.045
558.0,1.037
559.0,1.018
560.0,1.031
561.0,1.045
562.0,1.037
563.0,1.066
564.0,1.037
565.0,1.028
566.0,1.014
567.0,1.033
568.0,1.025
569.0,1.002
570.0,1.001
571.0,0.9947
572.0,1.02
573.0,1.031
574.0,1.028
575.0,1.009
576.0,0.9995
577.0,1.01
578.0,0.9947
579.0,0.9979
580.0,1.016
581.0,1.02
582.0,1.039
583.0,1.041
584.0,1.05
585.0,1.024
586.0,1.003
587.0,1.025
588.0,1.002
589.0,0.8913
590.0,0.9318
591.0,0.9839
592.0,0.9727
593.0,0.9856
594.0,0.9794
595.0,0.9564
596.0,0.9913
597.0,0.9812
598.0,0.9779
599.0,0.9783
600.0,0.9791
601.0,0.9705
602.0,0.9638
603.0,0.9795
604.0,0.9956
605.0,0.9903
606.0,0.9859
607.0,0.9954
608.0,0.9841
609.0,0.9855
610.0,0.9782
611.0,0.9831
612.0,0.9801
613.0,0.9676
614.0,0.9542
615.0,0.9747
616.0,0.9424
617.0,0.9403
618.0,0.9764
619.0,0.9664
620.0,0.9725
621.0,0.9737
622.0,0.9626
623.0,0.9481
624.0,0.9317
625.0,0.9295
626.0,0.9434
627.0,0.9545
628.0,0.899
629.0,0.9346
630.0,0.9133
631.0,0.9313
632.0,0.9197
633.0,0.9467
634.0,0.9366
635.0,0.9508
636.0,0.9378
637.0,0.9528
638.0,0.9614
639.0,0.9503
640.0,0.9407
641.0,0.9399
642.0,0.9354
643.0,0.9479
644.0,0.9445
645.0,0.9462
646.0,0.9251
647.0,0.9161
648.0,0.9172
649.0,0.8995
650.0,0.9013
651.0,0.9398
652.0,0.9036
653.0,0.9273
654.0,0.9167
655.0,0.884
656.0,0.7825
657.0,0.8034
658.0,0.8996
659.0,0.9056
660.0,0.9092
661.0,0.9156
662.0,0.9179
663.0,0.8996
664.0,0.9095
665.0,0.9097
666.0,0.9101
667.0,0.909
668.0,0.9091
669.0,0.923
670.0,0.9189
671.0,0.9186
672.0,0.9106
673.0,0.9242
674.0,0.9206
675.0,0.9122
676.0,0.9183
677.0,0.9091
678.0,0.9116
679.0,0.8968
680.0,0.9039
681.0,0.8979
682.0,0.8967
683.0,0.895
684.0,0.8906
685.0,0.8981
686.0,0.8928
687.0,0.6253
688.0,0.7172
689.0,0.7193
690.0,0.7492
691.0,0.7827
692.0,0.8065
693.0,0.8004
694.0,0.7938
695.0,0.8227
696.0,0.8238
697.0,0.8693
698.0,0.8559
699.0,0.8387
700.0,0.8286
701.0,0.8212
702.0,0.8257
703.0,0.8272
704.0,0.8517
705.0,0.853
706.0,0.8515
707.0,0.8518
708.0,0.8537
709.0,0.8537
710.0,0.8543
711.0,0.8527
712.0,0.8496
713.0,0.8416
714.0,0.8446
715.0,0.8192
716.0,0.82
717.0,0.7231
718.0,0.6662
719.0,0.6115
720.0,0.6414
721.0,0.7006
722.0,0.7936
723.0,0.743
724.0,0.6741
725.0,0.665
726.0,0.6952
727.0,0.7024
728.0,0.6638
729.0,0.6844
730.0,0.7241
731.0,0.6942
732.0,0.738
733.0,0.7769
734.0,0.7941
735.0,0.7783
736.0,0.7773
737.0,0.7805
738.0,0.7896
739.0,0.7741
740.0,0.7934
741.0,0.785
742.0,0.7852
743.0,0.805
744.0,0.8024
745.0,0.8023
746.0,0.806
747.0,0.8077
748.0,0.806
749.0,0.7968
750.0,0.7963
751.0,0.7882
752.0,0.7915
753.0,0.7955
754.0,0.7973
755.0,0.7928
756.0,0.7924
757.0,0.7936
758.0,0.7838
759.0,0.7695
760.0,0.1598
761.0,0.0906
762.0,0.4262
763.0,0.2319
764.0,0.3319
765.0,0.4264
766.0,0.5081
767.0,0.6259
768.0,0.7104
769.0,0.7226
770.0,0.7442
771.0,0.7489
772.0,0.7501
773.0,0.7552
774.0,0.7515
775.0,0.7457
776.0,0.7547
777.0,0.7448
778.0,0.7403
779.0,0.7409
780.0,0.7367
781.0,0.7374
782.0,0.742
783.0,0.7291
784.0,0.7325
785.0,0.7272
786.0,0.7353
787.0,0.7237
788.0,0.7153
789.0,0.7152
790.0,0.698
791.0,0.7023
792.0,0.6969
793.0,0.6858
794.0,0.6956
795.0,0.7079
796.0,0.6886
797.0,0.6895
798.0,0.7073
799.0,0.7032
800.0,0.6916
801.0,0.69
802.0,0.688
803.0,0.683
804.0,0.6837
805.0,0.6808
806.0,0.6988
807.0,0.6906
808.0,0.6911
809.0,0.679
810.0,0.6741
811.0,0.6762
812.0,0.6585
813.0,0.6459
814.0,0.574
815.0,0.5703
816.0,0.5316
817.0,0.5406
818.0,0.5217
819.0,0.5782
820.0,0.5465
821.0,0.632
822.0,0.615
823.0,0.4292
824.0,0.5995
825.0,0.6213
826.0,0.5998
827.0,0.6308
828.0,0.5409
829.0,0.5957
830.0,0.5886
831.0,0.5904
832.0,0.5734
833.0,0.6069
834.0,0.5875
835.0,0.641
836.0,0.6163
837.0,0.6426
838.0,0.6239
839.0,0.6327
840.0,0.6462
841.0,0.6376
842.0,0.6381
843.0,0.637
844.0,0.6286
845.0,0.6492
846.0,0.6462
847.0,0.6339
848.0,0.6303
849.0,0.6124
850.0,0.5867
851.0,0.6216
852.0,0.617
853.0,0.5936
854.0,0.5128
855.0,0.5631
856.0,0.6155
857.0,0.629
858.0,0.6244
859.0,0.6248
860.0,0.6258
861.0,0.6224
862.0,0.6322
863.0,0.6471
864.0,0.6147
865.0,0.6093
866.0,0.5479
867.0,0.5717
868.0,0.6221
869.0,0.6092
870.0,0.6266
871.0,0.6181
872.0,0.6159
873.0,0.6146
874.0,0.6073
875.0,0.595
876.0,0.6012
877.0,0.6073
878.0,0.6139
879.0,0.6045
880.0,0.5915
881.0,0.5828
882.0,0.5954
883.0,0.5972
884.0,0.5945
885.0,0.599
886.0,0.5714
887.0,0.5771
888.0,0.5858
889.0,0.592
890.0,0.5876
891.0,0.5863
892.0,0.5702
893.0,0.5532
894.0,0.5355
895.0,0.5083
896.0,0.4797
897.0,0.4151
898.0,0.4512
899.0,0.3468
900.0,0.4602
901.0,0.3634
902.0,0.4217
903.0,0.4274
904.0,0.5315
905.0,0.5142
906.0,0.4819
907.0,0.396
908.0,0.4032
909.0,0.4347
910.0,0.3882
911.0,0.4114
912.0,0.4293
913.0,0.3941
914.0,0.3901
915.0,0.4226
916.0,0.3587
917.0,0.4513
918.0,0.368
919.0,0.4585
920.0,0.4612
921.0,0.4793
922.0,0.4311
923.0,0.4628
924.0,0.4421
925.0,0.4325
926.0,0.4373
927.0,0.487
928.0,0.3644
929.0,0.3345
930.0,0.2658
931.0,0.2513
932.0,0.1839
933.0,0.151
934.0,0.08601
935.0,0.1533
936.0,0.0977
937.0,0.09927
938.0,0.1213
939.0,0.2435
940.0,0.291
941.0,0.2223
942.0,0.2557
943.0,0.1702
944.0,0.1774
945.0,0.2287
946.0,0.1192
947.0,0.2305
948.0,0.1697
949.0,0.3058
950.0,0.08918
951.0,0.3006
952.0,0.1651
953.0,0.2109
954.0,0.2559
955.0,0.213
956.0,0.2054
957.0,0.1657
958.0,0.2874
959.0,0.2311
960.0,0.259
961.0,0.2886
962.0,0.2733
963.0,0.3132
964.0,0.2875
965.0,0.3118
966.0,0.3123
967.0,0.3112
968.0,0.4106
969.0,0.4294
970.0,0.3953
971.0,0.4496
972.0,0.4306
973.0,0.3778
974.0,0.359
975.0,0.3715
976.0,0.3543
977.0,0.4002
978.0,0.3814
979.0,0.3986
980.0,0.3753
981.0,0.4469
982.0,0.4283
983.0,0.4118
984.0,0.4593
985.0,0.4267
986.0,0.4666
987.0,0.4583
988.0,0.4574
989.0,0.4648
990.0,0.4546
991.0,0.4662
992.0,0.4689
993.0,0.4592
994.0,0.4686
995.0,0.4679
996.0,0.466
997.0,0.4666
998.0,0.4645
999.0,0.4627
1000.0,0.4596
1001.0,0.4652
1002.0,0.4531
1003.0,0.457
1004.0,0.446
1005.0,0.4294
1006.0,0.4463
1007.0,0.4557
1008.0,0.4534
1009.0,0.4511
1010.0,0.4492
1011.0,0.4534
1012.0,0.4496
1013.0,0.4522
1014.0,0.4491
1015.0,0.4461
1016.0,0.4441
1017.0,0.4453
1018.0,0.4435
1019.0,0.4343
1020.0,0.4412
1021.0,0.4406
1022.0,0.4373
1023.0,0.4419
1024.0,0.4364
1025.0,0.4415
1026.0,0.4397
1027.0,0.4387
1028.0,0.4378
1029.0,0.4326
1030.0,0.4355
1031.0,0.4338
1032.0,0.4325
1033.0,0.426
1034.0,0.426
1035.0,0.4273
1036.0,0.4296
1037.0,0.4226
1038.0,0.4244
1039.0,0.4242
1040.0,0.4225
1041.0,0.4242
1042.0,0.4213
1043.0,0.4199
1044.0,0.4214
1045.0,0.4157
1046.0,0.4112
1047.0,0.4149
1048.0,0.4172
1049.0,0.4157
1050.0,0.4138
1051.0,0.4132
1052.0,0.4116
1053.0,0.4083
1054.0,0.4093
1055.0,0.4095
1056.0,0.4081
1057.0,0.4069
1058.0,0.3969
1059.0,0.3974
1060.0,0.3968
1061.0,0.3964
1062.0,0.3985
1063.0,0.3946
1064.0,0.3993
1065.0,0.3965
1066.0,0.3886
1067.0,0.3936
1068.0,0.3851
1069.0,0.3731
1070.0,0.3859
1071.0,0.3916
1072.0,0.3873
1073.0,0.3817
1074.0,0.3913
1075.0,0.3724
1076.0,0.391
1077.0,0.3844
1078.0,0.3773
1079.0,0.3846
1080.0,0.3785
1081.0,0.3667
1082.0,0.372
1083.0,0.373
1084.0,0.366
1085.0,0.3793
1086.0,0.3473
1087.0,0.3576
1088.0,0.3727
1089.0,0.362
1090.0,0.3545
1091.0,0.3717
1092.0,0.3706
1093.0,0.3163
1094.0,0.3393
1095.0,0.3293
1096.0,0.3159
1097.0,0.362
1098.0,0.3112
1099.0,0.3243
1100.0,0.3024
1101.0,0.3059
1102.0,0.2928
1103.0,0.2904
1104.0,0.2907
1105.0,0.3171
1106.0,0.2462
1107.0,0.3019
1108.0,0.2581
1109.0,0.2581
1110.0,0.2995
1111.0,0.2061
1112.0,0.256
1113.0,0.166
1114.0,0.1852
1115.0,0.1536
1116.0,0.1244
1117.0,0.04768
1118.0,0.1348
1119.0,0.06843
1120.0,0.08621
1121.0,0.1135
1122.0,0.04909
1123.0,0.07785
1124.0,0.06573
1125.0,0.08537
1126.0,0.03104
1127.0,0.09618
1128.0,0.05898
1129.0,0.06237
1130.0,0.04162
1131.0,0.179
1132.0,0.1411
1133.0,0.09122
1134.0,0.02439
1135.0,0.009083
1136.0,0.07674
1137.0,0.1764
1138.0,0.1247
1139.0,0.1824
1140.0,0.1537
1141.0,0.1184
1142.0,0.1355
1143.0,0.191
1144.0,0.06846
1145.0,0.08793
1146.0,0.09486
1147.0,0.03474
1148.0,0.1654
1149.0,0.1331
1150.0,0.0735
1151.0,0.1237
1152.0,0.151
1153.0,0.1462
1154.0,0.08547
1155.0,0.1903
1156.0,0.1721
1157.0,0.192
1158.0,0.1899
1159.0,0.2039
1160.0,0.1753
1161.0,0.2138
1162.0,0.2151
1163.0,0.2865
1164.0,0.2472
1165.0,0.2346
1166.0,0.232
1167.0,0.2519
1168.0,0.255
1169.0,0.2605
1170.0,0.2819
1171.0,0.275
1172.0,0.2793
1173.0,0.2813
1174.0,0.2044
1175.0,0.2742
1176.0,0.2996
1177.0,0.2888
1178.0,0.2196
1179.0,0.302
1180.0,0.2715
1181.0,0.28
1182.0,0.1963
1183.0,0.2753
1184.0,0.259
1185.0,0.2508
1186.0,0.2944
1187.0,0.2813
1188.0,0.1999
1189.0,0.2623
1190.0,0.2876
1191.0,0.2748
1192.0,0.2915
1193.0,0.2799
1194.0,0.2881
1195.0,0.2737
1196.0,0.2643
1197.0,0.2876
1198.0,0.264
1199.0,0.2273
1200.0,0.2765
1201.0,0.2676
1202.0,0.2655
1203.0,0.2633
1204.0,0.2318
1205.0,0.2708
1206.0,0.2977
1207.0,0.2651
1208.0,0.2601
1209.0,0.2652
1210.0,0.2757
1211.0,0.2636
1212.0,0.2617
1213.0,0.2885
1214.0,0.2673
1215.0,0.2625
1216.0,0.2875
1217.0,0.2804
1218.0,0.2852
1219.0,0.282
1220.0,0.2854
1221.0,0.288
1222.0,0.2808
1223.0,0.2784
1224.0,0.2771
1225.0,0.2862
1226.0,0.2877
1227.0,0.2668
1228.0,0.2889
1229.0,0.2878
1230.0,0.2831
1231.0,0.2902
1232.0,0.2885
1233.0,0.2798
1234.0,0.2898
1235.0,0.2881
1236.0,0.29
1237.0,0.2865
1238.0,0.2891
1239.0,0.2854
1240.0,0.2864
1241.0,0.2853
1242.0,0.2845
1243.0,0.2821
1244.0,0.2842
1245.0,0.2854
1246.0,0.2837
1247.0,0.2827
1248.0,0.2826
1249.0,0.2834
1250.0,0.2818
1251.0,0.2783
1252.0,0.2781
1253.0,0.2763
1254.0,0.2738
1255.0,0.278
1256.0,0.2709
1257.0,0.2696
1258.0,0.274
1259.0,0.2652
1260.0,0.2665
1261.0,0.253
1262.0,0.2461
1263.0,0.2466
1264.0,0.2294
1265.0,0.245
1266.0,0.2368
1267.0,0.2403
1268.0,0.229
1269.0,0.1498
1270.0,0.2397
1271.0,0.2519
1272.0,0.2526
1273.0,0.2501
1274.0,0.2507
1275.0,0.254
1276.0,0.2562
1277.0,0.2576
1278.0,0.2619
1279.0,0.2596
1280.0,0.2563
1281.0,0.2443
1282.0,0.2349
1283.0,0.2531
1284.0,0.2593
1285.0,0.2609
1286.0,0.2642
1287.0,0.2606
1288.0,0.2604
1289.0,0.253
1290.0,0.258
1291.0,0.2615
1292.0,0.2473
1293.0,0.2568
1294.0,0.2551
1295.0,0.2543
1296.0,0.2438
1297.0,0.2315
1298.0,0.2475
1299.0,0.2569
1300.0,0.2204
1301.0,0.2266
1302.0,0.2466
1303.0,0.2172
1304.0,0.1879
1305.0,0.2417
1306.0,0.2419
1307.0,0.191
1308.0,0.2171
1309.0,0.2403
1310.0,0.1875
1311.0,0.2087
1312.0,0.2035
1313.0,0.2
1314.0,0.18
1315.0,0.1782
1316.0,0.2059
1317.0,0.1953
1318.0,0.2112
1319.0,0.1682
1320.0,0.1623
1321.0,0.188
1322.0,0.1903
1323.0,0.1457
1324.0,0.165
1325.0,0.2031
1326.0,0.1759
1327.0,0.1682
1328.0,0.1458
1329.0,0.1116
1330.0,0.1442
1331.0,0.08951
1332.0,0.0916
1333.0,0.1269
1334.0,0.1064
1335.0,0.1452
1336.0,0.1161
1337.0,0.1033
1338.0,0.1118
1339.0,0.1109
1340.0,0.1073
1341.0,0.1062
1342.0,0.1114
1343.0,0.07838
1344.0,0.04679
1345.0,0.06726
1346.0,0.03531
1347.0,0.03623
1348.0,0.002708
1349.0,0.009337
1350.0,0.00942
1351.0,0.0026
1352.0,0.0008044
1353.0,4.79e-05
1354.0,0.0001497
1355.0,1.652e-06
1356.0,2.368e-05
1357.0,3.593e-05
1358.0,1.932e-06
1359.0,3.078e-07
1360.0,9.611e-07
1361.0,1.773e-09
1362.0,6.05e-12
1363.0,1.389e-06
1364.0,5.861e-07
1365.0,2.781e-12
1366.0,5.705e-06
1367.0,2.255e-06
1368.0,3.673e-14
1369.0,2.224e-07
1370.0,1.21e-07
1371.0,7.792e-09
1372.0,1.242e-06
1373.0,2.135e-05
1374.0,8.908e-05
1375.0,0.0001622
1376.0,0.0001339
1377.0,6.292e-05
1378.0,0.0005851
1379.0,2.658e-05
1380.0,4.086e-05
1381.0,1.145e-06
1382.0,1.151e-06
1383.0,1.899e-08
1384.0,2.614e-07
1385.0,9.768e-07
1386.0,1.098e-06
1387.0,9.837e-05
1388.0,1.967e-06
1389.0,0.000297
1390.0,0.0002558
1391.0,0.000175
1392.0,1.185e-05
1393.0,5.926e-05
1394.0,3.635e-05
1395.0,3.052e-07
1396.0,2.391e-09
1397.0,2.467e-05
1398.0,0.0006643
1399.0,0.0004208
1400.0,1.176e-09
1401.0,4.102e-09
1402.0,0.001016
1403.0,0.001311
1404.0,0.0004043
1405.0,1.618e-07
1406.0,0.001099
1407.0,9.458e-05
1408.0,0.0008927
1409.0,0.0003244
1410.0,0.0002477
1411.0,0.001147
1412.0,0.001492
1413.0,0.01378
1414.0,0.0001937
1415.0,9.656e-05
1416.0,0.02141
1417.0,0.006856
1418.0,0.007854
1419.0,0.001237
1420.0,0.00482
1421.0,0.005222
1422.0,0.02785
1423.0,0.005494
1424.0,0.01021
1425.0,0.01516
1426.0,0.01687
1427.0,0.03025
1428.0,0.002571
1429.0,0.02296
1430.0,0.03831
1431.0,0.04188
1432.0,0.002033
1433.0,0.02691
1434.0,0.01382
1435.0,0.01427
1436.0,0.02684
1437.0,0.02056
1438.0,0.008878
1439.0,0.03619
1440.0,0.02713
1441.0,0.02101
1442.0,0.02325
1443.0,0.0287
1444.0,0.03954
1445.0,0.03133
1446.0,0.01421
1447.0,0.02236
1448.0,0.07311
1449.0,0.06383
1450.0,0.01657
1451.0,0.006738
