interpolation:linear
wavelength,value
280.0,7.493000000000001e-20
280.5,2.054e-18
281.0,2.088e-19
281.5,4.908e-19
282.0,2.279e-18
282.5,6.569e-18
283.0,2.211e-17
283.5,3.66e-17
284.0,5.784e-16
284.5,1.632e-15
285.0,3.607e-15
285.5,2.308e-14
286.0,9.999e-14
286.5,4.965e-13
287.0,1.505e-12
287.5,6.1e-12
288.0,1.823e-11
288.5,7.288e-11
289.0,2.468e-10
289.5,9.36e-10
290.0,3.09e-09
290.5,7.252e-09
291.0,1.826e-08
291.5,6.351e-08
292.0,1.651e-07
292.5,2.58e-07
293.0,6.338e-07
293.5,1.861e-06
294.0,3.362e-06
294.5,4.342e-06
295.0,8.357e-06
295.5,1.961e-05
296.0,3.681e-05
296.5,5.008e-05
297.0,6.621e-05
297.5,0.0001713
298.0,0.0002616
298.5,0.0002568
299.0,0.0005525
299.5,0.0008769
300.0,0.000941
300.5,0.001328
301.0,0.002301
301.5,0.003524
302.0,0.002955
302.5,0.00554
303.0,0.009431
303.5,0.01148
304.0,0.01053
304.5,0.01477
305.0,0.02056
305.5,0.02232
306.0,0.02116
306.5,0.02547
307.0,0.0351
307.5,0.04352
308.0,0.04545
308.5,0.05188
309.0,0.04984
309.5,0.05439
310.0,0.05344
310.5,0.08559
311.0,0.1055
311.5,0.101
312.0,0.09698
312.5,0.1149
313.0,0.1228
313.5,0.1208
314.0,0.1462
314.5,0.1242
315.0,0.162
315.5,0.1383
316.0,0.1166
316.5,0.1625
317.0,0.2018
317.5,0.2118
318.0,0.1618
318.5,0.1931
319.0,0.2247
319.5,0.189
320.0,0.2295
320.5,0.2758
321.0,0.2369
321.5,0.2263
322.0,0.2506
322.5,0.2175
323.0,0.2112
323.5,0.2534
324.0,0.2945
324.5,0.302
325.0,0.2645
325.5,0.3332
326.0,0.4047
326.5,0.3997
327.0,0.4003
327.5,0.389
328.0,0.3526
328.5,0.3626
329.0,0.4266
329.5,0.4817
330.0,0.4879
330.5,0.3956
331.0,0.4048
331.5,0.4073
332.0,0.4337
332.5,0.4262
333.0,0.4265
333.5,0.3901
334.0,0.4002
334.5,0.4563
335.0,0.4257
335.5,0.4972
336.0,0.344
336.5,0.4041
337.0,0.3331
337.5,0.415
338.0,0.4012
338.5,0.4629
339.0,0.458
339.5,0.4405
340.0,0.5177
340.5,0.4662
341.0,0.4547
341.5,0.4173
342.0,0.4986
342.5,0.4663
343.0,0.5129
343.5,0.483
344.0,0.3568
344.5,0.3605
345.0,0.4768
345.5,0.4866
346.0,0.4134
346.5,0.4679
347.0,0.5024
347.5,0.4062
348.0,0.4629
348.5,0.4625
349.0,0.4289
349.5,0.4246
350.0,0.5251
350.5,0.5538
351.0,0.4948
351.5,0.481
352.0,0.5164
352.5,0.4028
353.0,0.5072
353.5,0.5423
354.0,0.5629
354.5,0.5708
355.0,0.5689
355.5,0.5138
356.0,0.5375
356.5,0.4589
357.0,0.3792
357.5,0.4642
358.0,0.3679
358.5,0.3143
359.0,0.4397
359.5,0.5604
360.0,0.5939
360.5,0.4747
361.0,0.4326
361.5,0.498
362.0,0.4305
362.5,0.5956
363.0,0.5349
363.5,0.4926
364.0,0.6023
364.5,0.5148
365.0,0.5243
365.5,0.6579
366.0,0.697
366.5,0.6547
367.0,0.6376
367.5,0.6616
368.0,0.5789
368.5,0.5841
369.0,0.6307
369.5,0.6722
370.0,0.7165
370.5,0.5561
371.0,0.5941
371.5,0.7433
372.0,0.4933
372.5,0.5914
373.0,0.6015
373.5,0.3914
374.0,0.5686
374.5,0.4709
375.0,0.4577
375.5,0.6833
376.0,0.5665
376.5,0.587
377.0,0.6215
377.5,0.727
378.0,0.7881
378.5,0.7449
379.0,0.6148
379.5,0.5616
380.0,0.5839
380.5,0.7071
381.0,0.7085
381.5,0.5616
382.0,0.4986
382.5,0.425
383.0,0.3934
383.5,0.3789
384.0,0.418
384.5,0.6147
385.0,0.6096
385.5,0.5676
386.0,0.4861
386.5,0.6385
387.0,0.5306
387.5,0.5959
388.0,0.5502
388.5,0.5438
389.0,0.587
389.5,0.711
390.0,0.7135
390.5,0.6566
391.0,0.7728
391.5,0.7883
392.0,0.6639
392.5,0.5943
393.0,0.3307
393.5,0.2404
394.0,0.4891
394.5,0.6218
395.0,0.7587
395.5,0.7707
396.0,0.6682
396.5,0.3906
397.0,0.2931
397.5,0.5961
398.0,0.8348
398.5,0.8628
399.0,0.9341
399.5,0.931
400.0,0.9669
401.0,0.9827
402.0,1.037
403.0,0.9845
404.0,0.9692
405.0,0.969
406.0,0.9531
407.0,0.9375
408.0,0.9742
409.0,1.043
410.0,0.9108
411.0,0.9864
412.0,1.059
413.0,1.033
414.0,1.045
415.0,1.048
416.0,1.066
417.0,1.04
418.0,1.02
419.0,1.034
420.0,1.029
421.0,1.076
422.0,1.023
423.0,0.9991
424.0,1.057
425.0,1.055
426.0,1.027
427.0,1.008
428.0,0.9815
429.0,0.9293
430.0,0.8132
431.0,0.8061
432.0,1.04
433.0,1.046
434.0,0.9713
435.0,1.014
436.0,1.143
437.0,1.127
438.0,1.026
439.0,1.061
440.0,1.095
441.0,1.134
442.0,1.216
443.0,1.185
444.0,1.21
445.0,1.184
446.0,1.13
447.0,1.221
448.0,1.24
449.0,1.244
450.0,1.279
451.0,1.326
452.0,1.278
453.0,1.201
454.0,1.254
455.0,1.262
456.0,1.291
457.0,1.313
458.0,1.268
459.0,1.262
460.0,1.265
461.0,1.294
462.0,1.304
463.0,1.295
464.0,1.273
465.0,1.256
466.0,1.268
467.0,1.245
468.0,1.26
469.0,1.266
470.0,1.226
471.0,1.224
472.0,1.29
473.0,1.273
474.0,1.275
475.0,1.287
476.0,1.249
477.0,1.253
478.0,1.287
479.0,1.279
480.0,1.281
481.0,1.305
482.0,1.311
483.0,1.294
484.0,1.267
485.0,1.207
486.0,1.055
487.0,1.105
488.0,1.213
489.0,1.217
490.0,1.279
491.0,1.257
492.0,1.187
493.0,1.226
494.0,1.238
495.0,1.248
496.0,1.256
497.0,1.276
498.0,1.216
499.0,1.232
500.0,1.196
501.0,1.175
502.0,1.159
503.0,1.207
504.0,1.179
505.0,1.219
506.0,1.258
507.0,1.197
508.0,1.159
509.0,1.191
510.0,1.184
511.0,1.216
512.0,1.229
513.0,1.163
514.0,1.154
515.0,1.143
516.0,1.14
517.0,1.013
518.0,1.065
519.0,1.117
520.0,1.158
521.0,1.169
522.0,1.17
523.0,1.149
524.0,1.191
525.0,1.205
526.0,1.152
527.0,1.086
528.0,1.149
529.0,1.211
530.0,1.194
531.0,1.212
532.0,1.17
533.0,1.136
534.0,1.169
535.0,1.194
536.0,1.205
537.0,1.157
538.0,1.178
539.0,1.168
540.0,1.12
541.0,1.128
542.0,1.163
543.0,1.151
544.0,1.171
545.0,1.167
546.0,1.173
547.0,1.172
548.0,1.158
549.0,1.161
550.0,1.175
551.0,1.161
552.0,1.169
553.0,1.148
554.0,1.175
555.0,1.178
556.0,1.163
557.0,1.127
558.0,1.119
559.0,1.098
560.0,1.112
561.0,1.127
562.0,1.119
563.0,1.15
564.0,1.119
565.0,1.11
566.0,1.094
567.0,1.115
568.0,1.106
569.0,1.082
570.0,1.081
571.0,1.074
572.0,1.101
573.0,1.114
574.0,1.11
575.0,1.09
576.0,1.08
577.0,1.092
578.0,1.075
579.0,1.078
580.0,1.097
581.0,1.101
582.0,1.121
583.0,1.123
584.0,1.132
585.0,1.104
586.0,1.081
587.0,1.106
588.0,1.082
589.0,0.9638
590.0,1.007
591.0,1.063
592.0,1.051
593.0,1.064
594.0,1.058
595.0,1.034
596.0,1.07
597.0,1.06
598.0,1.056
599.0,1.056
600.0,1.056
601.0,1.047
602.0,1.04
603.0,1.056
604.0,1.074
605.0,1.068
606.0,1.063
607.0,1.073
608.0,1.061
609.0,1.062
610.0,1.054
611.0,1.06
612.0,1.056
613.0,1.043
614.0,1.028
615.0,1.05
616.0,1.015
617.0,1.013
618.0,1.052
619.0,1.041
620.0,1.047
621.0,1.049
622.0,1.037
623.0,1.022
624.0,1.004
625.0,1.001
626.0,1.016
627.0,1.029
628.0,0.9722
629.0,1.008
630.0,0.9854
631.0,1.004
632.0,0.9911
633.0,1.02
634.0,1.008
635.0,1.024
636.0,1.009
637.0,1.025
638.0,1.034
639.0,1.022
640.0,1.012
641.0,1.011
642.0,1.006
643.0,1.019
644.0,1.015
645.0,1.017
646.0,0.995
647.0,0.9863
648.0,0.9876
649.0,0.9686
650.0,0.9693
651.0,1.01
652.0,0.9729
653.0,0.997
654.0,0.9854
655.0,0.951
656.0,0.8413
657.0,0.8637
658.0,0.9667
659.0,0.9731
660.0,0.9769
661.0,0.9837
662.0,0.9864
663.0,0.9666
664.0,0.977
665.0,0.9769
666.0,0.9773
667.0,0.9759
668.0,0.9759
669.0,0.9907
670.0,0.9863
671.0,0.9858
672.0,0.9772
673.0,0.9918
674.0,0.9879
675.0,0.9787
676.0,0.9853
677.0,0.9754
678.0,0.978
679.0,0.9621
680.0,0.9697
681.0,0.9632
682.0,0.962
683.0,0.9601
684.0,0.9554
685.0,0.9633
686.0,0.9578
687.0,0.6866
688.0,0.7801
689.0,0.7821
690.0,0.8122
691.0,0.8458
692.0,0.8694
693.0,0.8631
694.0,0.856
695.0,0.8853
696.0,0.8865
697.0,0.933
698.0,0.9187
699.0,0.9017
700.0,0.891
701.0,0.8835
702.0,0.8877
703.0,0.8893
704.0,0.9147
705.0,0.9161
706.0,0.9141
707.0,0.9144
708.0,0.9165
709.0,0.9159
710.0,0.9168
711.0,0.9149
712.0,0.9113
713.0,0.9029
714.0,0.9061
715.0,0.8794
716.0,0.8805
717.0,0.7822
718.0,0.7217
719.0,0.6631
720.0,0.6959
721.0,0.7566
722.0,0.8531
723.0,0.8007
724.0,0.7289
725.0,0.7198
726.0,0.7521
727.0,0.7585
728.0,0.7188
729.0,0.739
730.0,0.7818
731.0,0.7501
732.0,0.7953
733.0,0.8351
734.0,0.8531
735.0,0.8364
736.0,0.8352
737.0,0.8387
738.0,0.8472
739.0,0.8306
740.0,0.8508
741.0,0.8416
742.0,0.8416
743.0,0.8627
744.0,0.8598
745.0,0.8596
746.0,0.8635
747.0,0.8653
748.0,0.8634
749.0,0.8536
750.0,0.853
751.0,0.8443
752.0,0.8479
753.0,0.8521
754.0,0.8541
755.0,0.8493
756.0,0.8488
757.0,0.8501
758.0,0.8396
759.0,0.8251
760.0,0.1894
761.0,0.1114
762.0,0.4739
763.0,0.2684
764.0,0.3752
765.0,0.4741
766.0,0.5573
767.0,0.6789
768.0,0.7645
769.0,0.7764
770.0,0.798
771.0,0.8024
772.0,0.8034
773.0,0.8089
774.0,0.8048
775.0,0.7986
776.0,0.8083
777.0,0.7976
778.0,0.7928
779.0,0.7935
780.0,0.789
781.0,0.7898
782.0,0.7946
783.0,0.7807
784.0,0.7844
785.0,0.7788
786.0,0.7875
787.0,0.7757
788.0,0.767
789.0,0.767
790.0,0.7494
791.0,0.7531
792.0,0.7472
793.0,0.7355
794.0,0.745
795.0,0.7584
796.0,0.739
797.0,0.74
798.0,0.7579
799.0,0.7538
800.0,0.7417
801.0,0.7402
802.0,0.738
803.0,0.7328
804.0,0.7334
805.0,0.73
806.0,0.7487
807.0,0.7401
808.0,0.7405
809.0,0.728
810.0,0.7231
811.0,0.7259
812.0,0.7078
813.0,0.6948
814.0,0.6205
815.0,0.6164
816.0,0.575
817.0,0.5844
818.0,0.5646
819.0,0.6231
820.0,0.59
821.0,0.6787
822.0,0.6611
823.0,0.4672
824.0,0.6456
825.0,0.6674
826.0,0.6454
827.0,0.6776
828.0,0.5844
829.0,0.6408
830.0,0.6335
831.0,0.6353
832.0,0.6176
833.0,0.652
834.0,0.6322
835.0,0.6875
836.0,0.6624
837.0,0.6891
838.0,0.6696
839.0,0.6783
840.0,0.6927
841.0,0.6837
842.0,0.6839
843.0,0.6822
844.0,0.6734
845.0,0.6951
846.0,0.6919
847.0,0.6786
848.0,0.675
849.0,0.6558
850.0,0.6282
851.0,0.6658
852.0,0.6608
853.0,0.6356
854.0,0.5492
855.0,0.6028
856.0,0.659
857.0,0.6733
858.0,0.6685
859.0,0.6688
860.0,0.6699
861.0,0.6663
862.0,0.6766
863.0,0.6926
864.0,0.658
865.0,0.6522
866.0,0.5864
867.0,0.6119
868.0,0.6659
869.0,0.652
870.0,0.6706
871.0,0.6615
872.0,0.6591
873.0,0.6578
874.0,0.65
875.0,0.6368
876.0,0.6435
877.0,0.6499
878.0,0.6571
879.0,0.647
880.0,0.6331
881.0,0.6238
882.0,0.6374
883.0,0.6392
884.0,0.6364
885.0,0.6412
886.0,0.612
887.0,0.6178
888.0,0.6274
889.0,0.6337
890.0,0.6293
891.0,0.6278
892.0,0.6109
893.0,0.5934
894.0,0.5755
895.0,0.5477
896.0,0.5177
897.0,0.45
898.0,0.488
899.0,0.3776
900.0,0.4964
901.0,0.3956
902.0,0.4556
903.0,0.4629
904.0,0.5712
905.0,0.5532
906.0,0.5191
907.0,0.4296
908.0,0.437
909.0,0.4697
910.0,0.422
911.0,0.4458
912.0,0.4645
913.0,0.4286
914.0,0.4238
915.0,0.4588
916.0,0.3903
917.0,0.488
918.0,0.4004
919.0,0.4952
920.0,0.4968
921.0,0.5159
922.0,0.466
923.0,0.4981
924.0,0.4779
925.0,0.4676
926.0,0.4728
927.0,0.5247
928.0,0.3979
929.0,0.3667
930.0,0.2937
931.0,0.2773
932.0,0.2053
933.0,0.1699
934.0,0.09958
935.0,0.1713
936.0,0.111
937.0,0.113
938.0,0.1374
939.0,0.2687
940.0,0.3194
941.0,0.2463
942.0,0.2819
943.0,0.1895
944.0,0.1959
945.0,0.253
946.0,0.1343
947.0,0.2556
948.0,0.1886
949.0,0.3367
950.0,0.1022
951.0,0.3305
952.0,0.1849
953.0,0.234
954.0,0.2816
955.0,0.2361
956.0,0.2266
957.0,0.1859
958.0,0.3136
959.0,0.2548
960.0,0.2854
961.0,0.316
962.0,0.2996
963.0,0.3416
964.0,0.3142
965.0,0.3399
966.0,0.3409
967.0,0.3398
968.0,0.4425
969.0,0.4632
970.0,0.4272
971.0,0.4834
972.0,0.4635
973.0,0.4092
974.0,0.3893
975.0,0.4018
976.0,0.3845
977.0,0.4316
978.0,0.4126
979.0,0.4302
980.0,0.4057
981.0,0.4803
982.0,0.4613
983.0,0.4441
984.0,0.4926
985.0,0.4595
986.0,0.4999
987.0,0.4916
988.0,0.4907
989.0,0.4975
990.0,0.4877
991.0,0.4992
992.0,0.5019
993.0,0.4922
994.0,0.5016
995.0,0.5008
996.0,0.4988
997.0,0.4994
998.0,0.4971
999.0,0.4952
1000.0,0.4921
1001.0,0.4979
1002.0,0.4856
1003.0,0.4891
1004.0,0.4775
1005.0,0.4596
1006.0,0.4778
1007.0,0.4877
1008.0,0.4854
1009.0,0.483
1010.0,0.4811
1011.0,0.4852
1012.0,0.4813
1013.0,0.484
1014.0,0.4806
1015.0,0.4775
1016.0,0.4753
1017.0,0.4766
1018.0,0.4746
1019.0,0.465
1020.0,0.4722
1021.0,0.4715
1022.0,0.468
1023.0,0.473
1024.0,0.4674
1025.0,0.4725
1026.0,0.4706
1027.0,0.4695
1028.0,0.4685
1029.0,0.4631
1030.0,0.466
1031.0,0.4643
1032.0,0.4628
1033.0,0.4559
1034.0,0.4559
1035.0,0.4573
1036.0,0.4597
1037.0,0.4522
1038.0,0.4543
1039.0,0.454
1040.0,0.4522
1041.0,0.4541
1042.0,0.4509
1043.0,0.4495
1044.0,0.4511
1045.0,0.445
1046.0,0.4401
1047.0,0.4441
1048.0,0.4466
1049.0,0.445
1050.0,0.443
1051.0,0.4425
1052.0,0.4407
1053.0,0.4373
1054.0,0.4383
1055.0,0.4386
1056.0,0.4372
1057.0,0.4359
1058.0,0.4252
1059.0,0.4258
1060.0,0.4252
1061.0,0.4247
1062.0,0.427
1063.0,0.4229
1064.0,0.4279
1065.0,0.425
1066.0,0.4164
1067.0,0.4219
1068.0,0.4128
1069.0,0.3999
1070.0,0.4136
1071.0,0.4196
1072.0,0.4151
1073.0,0.4091
1074.0,0.4191
1075.0,0.3996
1076.0,0.4188
1077.0,0.4122
1078.0,0.4047
1079.0,0.4119
1080.0,0.4058
1081.0,0.3935
1082.0,0.3986
1083.0,0.3995
1084.0,0.393
1085.0,0.4066
1086.0,0.3734
1087.0,0.3837
1088.0,0.3994
1089.0,0.3885
1090.0,0.3809
1091.0,0.3984
1092.0,0.3971
1093.0,0.341
1094.0,0.3639
1095.0,0.3547
1096.0,0.3409
1097.0,0.3878
1098.0,0.336
1099.0,0.3498
1100.0,0.3272
1101.0,0.3307
1102.0,0.317
1103.0,0.3148
1104.0,0.3151
1105.0,0.3422
1106.0,0.2692
1107.0,0.3265
1108.0,0.2812
1109.0,0.2809
1110.0,0.3242
1111.0,0.2259
1112.0,0.2784
1113.0,0.1835
1114.0,0.2043
1115.0,0.1696
1116.0,0.1393
1117.0,0.05548
1118.0,0.1501
1119.0,0.07788
1120.0,0.09815
1121.0,0.1281
1122.0,0.05688
1123.0,0.08858
1124.0,0.07481
1125.0,0.09677
1126.0,0.03664
1127.0,0.1089
1128.0,0.06833
1129.0,0.07201
1130.0,0.04876
1131.0,0.1991
1132.0,0.1576
1133.0,0.1038
1134.0,0.02901
1135.0,0.01075
1136.0,0.08805
1137.0,0.1967
1138.0,0.1395
1139.0,0.2005
1140.0,0.1704
1141.0,0.1325
1142.0,0.1508
1143.0,0.2111
1144.0,0.07756
1145.0,0.1
1146.0,0.1079
1147.0,0.04107
1148.0,0.1828
1149.0,0.1483
1150.0,0.08318
1151.0,0.1384
1152.0,0.1677
1153.0,0.1613
1154.0,0.09757
1155.0,0.2092
1156.0,0.1899
1157.0,0.2108
1158.0,0.2085
1159.0,0.2229
1160.0,0.1928
1161.0,0.2331
1162.0,0.2346
1163.0,0.3091
1164.0,0.268
1165.0,0.2555
1166.0,0.2519
1167.0,0.2729
1168.0,0.2765
1169.0,0.282
1170.0,0.3042
1171.0,0.2969
1172.0,0.3009
1173.0,0.3035
1174.0,0.2232
1175.0,0.2955
1176.0,0.3216
1177.0,0.3108
1178.0,0.2384
1179.0,0.3241
1180.0,0.2928
1181.0,0.3019
1182.0,0.2137
1183.0,0.2964
1184.0,0.2796
1185.0,0.2714
1186.0,0.3164
1187.0,0.3031
1188.0,0.2178
1189.0,0.2827
1190.0,0.3092
1191.0,0.2965
1192.0,0.3132
1193.0,0.3012
1194.0,0.3097
1195.0,0.2949
1196.0,0.2853
1197.0,0.3088
1198.0,0.284
1199.0,0.2462
1200.0,0.2975
1201.0,0.2885
1202.0,0.2859
1203.0,0.2836
1204.0,0.2506
1205.0,0.2912
1206.0,0.3191
1207.0,0.2856
1208.0,0.2798
1209.0,0.2852
1210.0,0.296
1211.0,0.2837
1212.0,0.2823
1213.0,0.3096
1214.0,0.2881
1215.0,0.2831
1216.0,0.3085
1217.0,0.3013
1218.0,0.3061
1219.0,0.3028
1220.0,0.3063
1221.0,0.3088
1222.0,0.3013
1223.0,0.2989
1224.0,0.2977
1225.0,0.3069
1226.0,0.3084
1227.0,0.2868
1228.0,0.3094
1229.0,0.3084
1230.0,0.3036
1231.0,0.3107
1232.0,0.3089
1233.0,0.3002
1234.0,0.3101
1235.0,0.3084
1236.0,0.3104
1237.0,0.3068
1238.0,0.3093
1239.0,0.3054
1240.0,0.3065
1241.0,0.3055
1242.0,0.3044
1243.0,0.3019
1244.0,0.3042
1245.0,0.3054
1246.0,0.3036
1247.0,0.3026
1248.0,0.3026
1249.0,0.3033
1250.0,0.3016
1251.0,0.298
1252.0,0.2977
1253.0,0.296
1254.0,0.2935
1255.0,0.2976
1256.0,0.2904
1257.0,0.2891
1258.0,0.2935
1259.0,0.2848
1260.0,0.286
1261.0,0.2723
1262.0,0.2654
1263.0,0.266
1264.0,0.2484
1265.0,0.2642
1266.0,0.256
1267.0,0.2593
1268.0,0.2478
1269.0,0.1667
1270.0,0.2588
1271.0,0.2711
1272.0,0.2717
1273.0,0.2691
1274.0,0.2696
1275.0,0.2731
1276.0,0.2753
1277.0,0.2766
1278.0,0.2809
1279.0,0.2785
1280.0,0.2749
1281.0,0.2619
1282.0,0.2516
1283.0,0.2711
1284.0,0.2777
1285.0,0.2794
1286.0,0.2828
1287.0,0.2792
1288.0,0.2789
1289.0,0.2716
1290.0,0.2764
1291.0,0.28
1292.0,0.2658
1293.0,0.2752
1294.0,0.2734
1295.0,0.2728
1296.0,0.2622
1297.0,0.2494
1298.0,0.2657
1299.0,0.2753
1300.0,0.2379
1301.0,0.2442
1302.0,0.2647
1303.0,0.2342
1304.0,0.2043
1305.0,0.2596
1306.0,0.2599
1307.0,0.2071
1308.0,0.2338
1309.0,0.2583
1310.0,0.2034
1311.0,0.2252
1312.0,0.2199
1313.0,0.2163
1314.0,0.1953
1315.0,0.1937
1316.0,0.2224
1317.0,0.2112
1318.0,0.2277
1319.0,0.1833
1320.0,0.1765
1321.0,0.2037
1322.0,0.2065
1323.0,0.1598
1324.0,0.1798
1325.0,0.2195
1326.0,0.1912
1327.0,0.1831
1328.0,0.1593
1329.0,0.1233
1330.0,0.1587
1331.0,0.1003
1332.0,0.102
1333.0,0.1408
1334.0,0.1173
1335.0,0.1592
1336.0,0.1282
1337.0,0.1146
1338.0,0.1239
1339.0,0.1228
1340.0,0.1183
1341.0,0.1181
1342.0,0.1239
1343.0,0.08939
1344.0,0.05333
1345.0,0.07637
1346.0,0.04165
1347.0,0.04298
1348.0,0.003537
1349.0,0.01184
1350.0,0.0117
1351.0,0.003517
1352.0,0.001184
1353.0,7.83e-05
1354.0,0.0002297
1355.0,3.108e-06
1356.0,3.908e-05
1357.0,5.904e-05
1358.0,3.606e-06
1359.0,6.651e-07
1360.0,1.89e-06
1361.0,4.809e-09
1362.0,1.904e-11
1363.0,2.821e-06
1364.0,1.213e-06
1365.0,1.033e-11
1366.0,1.112e-05
1367.0,4.332e-06
1368.0,1.904e-13
1369.0,4.658e-07
1370.0,2.695e-07
1371.0,1.887e-08
1372.0,2.39e-06
1373.0,3.694e-05
1374.0,0.0001436
1375.0,0.0002604
1376.0,0.0002049
1377.0,9.794e-05
1378.0,0.000875
1379.0,4.16e-05
1380.0,6.644e-05
1381.0,1.961e-06
1382.0,2.254e-06
1383.0,3.983e-08
1384.0,5.602e-07
1385.0,1.79e-06
1386.0,2.239e-06
1387.0,0.0001641
1388.0,3.352e-06
1389.0,0.0004609
1390.0,0.0003962
1391.0,0.0002763
1392.0,1.935e-05
1393.0,9.278e-05
1394.0,6.324e-05
1395.0,5.84e-07
1396.0,6.22e-09
1397.0,3.978e-05
1398.0,0.0009983
1399.0,0.000633
1400.0,3.317e-09
1401.0,1.035e-08
1402.0,0.001397
1403.0,0.00183
1404.0,0.0005688
1405.0,3.265e-07
1406.0,0.001586
1407.0,0.0001354
1408.0,0.001283
1409.0,0.0004914
1410.0,0.0003655
1411.0,0.001597
1412.0,0.002026
1413.0,0.01723
1414.0,0.0002843
1415.0,0.0001456
1416.0,0.02566
1417.0,0.008662
1418.0,0.009939
1419.0,0.001588
1420.0,0.006119
1421.0,0.006664
1422.0,0.03323
1423.0,0.006685
1424.0,0.01231
1425.0,0.01843
1426.0,0.02011
1427.0,0.03511
1428.0,0.003381
1429.0,0.02708
1430.0,0.04413
1431.0,0.04797
1432.0,0.002686
1433.0,0.03122
1434.0,0.01623
1435.0,0.01742
1436.0,0.03173
1437.0,0.02432
1438.0,0.0108
1439.0,0.04231
1440.0,0.03179
1441.0,0.02512
1442.0,0.02769
1443.0,0.03341
1444.0,0.04569
1445.0,0.03684
1446.0,0.0169
1447.0,0.02659
1448.0,0.08229
1449.0,0.0725
1450.0,0.01967
1451.0,0.008165
1452.0,0.04465
1453.0,0.05802
1454.0,0.09602
1455.0,0.04661
