interpolation:linear
wavelength,value
280.0,1.136e-22
280.5,3.781e-21
281.0,2.0370000000000003e-20
281.5,4.411e-19
282.0,5.432e-19
282.5,1.325e-18
283.0,4.167e-18
283.5,6.784e-18
284.0,1.12e-16
284.5,3.281e-16
285.0,5.748e-16
285.5,2.797e-15
286.0,1.124e-14
286.5,5.042e-14
287.0,1.447e-13
287.5,5.587e-13
288.0,1.981e-12
288.5,5.795e-12
289.0,1.514e-11
289.5,4.518e-11
290.0,1.248e-10
290.5,2.54e-10
291.0,5.447e-10
291.5,1.564e-09
292.0,3.157e-09
292.5,4.413e-09
293.0,9.422e-09
293.5,2.281e-08
294.0,3.561e-08
294.5,4.733e-08
295.0,7.996e-08
295.5,1.341e-07
296.0,2.564e-07
296.5,3.549e-07
297.0,4.756e-07
297.5,1.256e-06
298.0,1.95e-06
298.5,1.936e-06
299.0,4.21e-06
299.5,6.804e-06
300.0,7.354e-06
300.5,1.045e-05
301.0,1.827e-05
301.5,2.81e-05
302.0,2.355e-05
302.5,4.615e-05
303.0,8.357e-05
303.5,0.0001067
304.0,0.0001032
304.5,0.0001664
305.0,0.0002828
305.5,0.0003489
306.0,0.0003476
306.5,0.0004547
307.0,0.0007539
307.5,0.001118
308.0,0.001201
308.5,0.001498
309.0,0.001756
309.5,0.002347
310.0,0.002531
310.5,0.004246
311.0,0.005646
311.5,0.005587
312.0,0.006328
312.5,0.008359
313.0,0.009463
313.5,0.008828
314.0,0.01218
314.5,0.0123
315.0,0.01653
315.5,0.01298
316.0,0.0126
316.5,0.0198
317.0,0.02453
317.5,0.02488
318.0,0.02064
318.5,0.02884
319.0,0.03631
319.5,0.02689
320.0,0.03203
320.5,0.0452
321.0,0.04484
321.5,0.04346
322.0,0.04124
322.5,0.03609
323.0,0.03876
323.5,0.0518
324.0,0.06124
324.5,0.06019
325.0,0.04941
325.5,0.06756
326.0,0.08527
326.5,0.089
327.0,0.08736
327.5,0.08276
328.0,0.06973
328.5,0.07836
329.0,0.09891
329.5,0.1141
330.0,0.1136
330.5,0.08733
331.0,0.08776
331.5,0.09196
332.0,0.1038
332.5,0.1048
333.0,0.1033
333.5,0.09052
334.0,0.09226
334.5,0.1105
335.0,0.1061
335.5,0.1248
336.0,0.0864
336.5,0.09941
337.0,0.08033
337.5,0.09939
338.0,0.1
338.5,0.1168
339.0,0.1158
339.5,0.1114
340.0,0.1296
340.5,0.1172
341.0,0.1153
341.5,0.1063
342.0,0.1272
342.5,0.1192
343.0,0.1308
343.5,0.123
344.0,0.09019
344.5,0.09167
345.0,0.1219
345.5,0.1247
346.0,0.1062
346.5,0.1204
347.0,0.1291
347.5,0.1044
348.0,0.1193
348.5,0.1195
349.0,0.111
349.5,0.11
350.0,0.1361
350.5,0.1437
351.0,0.1282
351.5,0.1243
352.0,0.1339
352.5,0.1047
353.0,0.1321
353.5,0.1414
354.0,0.147
354.5,0.1491
355.0,0.1486
355.5,0.1344
356.0,0.1408
356.5,0.1203
357.0,0.09938
357.5,0.1217
358.0,0.09655
358.5,0.08256
359.0,0.1155
359.5,0.1471
360.0,0.1561
360.5,0.1249
361.0,0.114
361.5,0.1314
362.0,0.1138
362.5,0.1577
363.0,0.1418
363.5,0.1308
364.0,0.1601
364.5,0.1369
365.0,0.1395
365.5,0.1753
366.0,0.1859
366.5,0.1748
367.0,0.1704
367.5,0.177
368.0,0.155
368.5,0.1565
369.0,0.1692
369.5,0.1805
370.0,0.1925
370.5,0.1496
371.0,0.16
371.5,0.2003
372.0,0.133
372.5,0.1596
373.0,0.1625
373.5,0.1058
374.0,0.1539
374.5,0.1276
375.0,0.1241
375.5,0.1854
376.0,0.1538
376.5,0.1595
377.0,0.169
377.5,0.1979
378.0,0.2146
378.5,0.203
379.0,0.1676
379.5,0.1531
380.0,0.1593
380.5,0.1931
381.0,0.1938
381.5,0.1538
382.0,0.1368
382.5,0.1167
383.0,0.1082
383.5,0.1043
384.0,0.1152
384.5,0.1695
385.0,0.1683
385.5,0.1569
386.0,0.1345
386.5,0.1769
387.0,0.1471
387.5,0.1653
388.0,0.1527
388.5,0.1511
389.0,0.1633
389.5,0.1979
390.0,0.1988
390.5,0.1831
391.0,0.2158
391.5,0.2202
392.0,0.1856
392.5,0.1664
393.0,0.09267
393.5,0.06743
394.0,0.1373
394.5,0.1748
395.0,0.2134
395.5,0.2169
396.0,0.1882
396.5,0.1102
397.0,0.08276
397.5,0.1685
398.0,0.236
398.5,0.2441
399.0,0.2647
399.5,0.2641
400.0,0.2743
401.0,0.2758
402.0,0.2915
403.0,0.2775
404.0,0.2736
405.0,0.274
406.0,0.2701
407.0,0.2663
408.0,0.2769
409.0,0.2968
410.0,0.2598
411.0,0.2819
412.0,0.3035
413.0,0.2962
414.0,0.3004
415.0,0.3018
416.0,0.3077
417.0,0.3005
418.0,0.2953
419.0,0.2997
420.0,0.2987
421.0,0.313
422.0,0.2979
423.0,0.2914
424.0,0.3084
425.0,0.3083
426.0,0.3011
427.0,0.2958
428.0,0.2885
429.0,0.2739
430.0,0.2401
431.0,0.2381
432.0,0.308
433.0,0.3101
434.0,0.2882
435.0,0.3011
436.0,0.3401
437.0,0.3362
438.0,0.3066
439.0,0.3167
440.0,0.3273
441.0,0.3397
442.0,0.3647
443.0,0.3551
444.0,0.3635
445.0,0.3557
446.0,0.3404
447.0,0.3689
448.0,0.3743
449.0,0.3768
450.0,0.3879
451.0,0.4027
452.0,0.3884
453.0,0.3658
454.0,0.3826
455.0,0.3851
456.0,0.3946
457.0,0.4013
458.0,0.3873
459.0,0.3855
460.0,0.3864
461.0,0.3956
462.0,0.3993
463.0,0.3966
464.0,0.3911
465.0,0.3872
466.0,0.3917
467.0,0.3843
468.0,0.389
469.0,0.3911
470.0,0.3786
471.0,0.3784
472.0,0.3987
473.0,0.3936
474.0,0.3937
475.0,0.3964
476.0,0.3837
477.0,0.3841
478.0,0.395
479.0,0.3931
480.0,0.3944
481.0,0.4025
482.0,0.4055
483.0,0.4016
484.0,0.394
485.0,0.3761
486.0,0.3295
487.0,0.3459
488.0,0.3795
489.0,0.3805
490.0,0.4008
491.0,0.3944
492.0,0.3726
493.0,0.385
494.0,0.389
495.0,0.3926
496.0,0.395
497.0,0.4011
498.0,0.3822
499.0,0.3867
500.0,0.3749
501.0,0.3674
502.0,0.361
503.0,0.3745
504.0,0.3617
505.0,0.3773
506.0,0.3894
507.0,0.3708
508.0,0.3603
509.0,0.3713
510.0,0.37
511.0,0.3807
512.0,0.3852
513.0,0.3647
514.0,0.3625
515.0,0.3589
516.0,0.3579
517.0,0.3182
518.0,0.3344
519.0,0.3507
520.0,0.3634
521.0,0.3667
522.0,0.3667
523.0,0.3598
524.0,0.3721
525.0,0.3755
526.0,0.3584
527.0,0.337
528.0,0.3558
529.0,0.3745
530.0,0.3688
531.0,0.3739
532.0,0.3609
533.0,0.3503
534.0,0.361
535.0,0.3693
536.0,0.3731
537.0,0.3588
538.0,0.3653
539.0,0.3622
540.0,0.347
541.0,0.3483
542.0,0.3586
543.0,0.3557
544.0,0.361
545.0,0.36
546.0,0.3608
547.0,0.3613
548.0,0.3574
549.0,0.3588
550.0,0.3631
551.0,0.3588
552.0,0.3613
553.0,0.3547
554.0,0.3631
555.0,0.3636
556.0,0.3587
557.0,0.3472
558.0,0.344
559.0,0.337
560.0,0.3408
561.0,0.3447
562.0,0.3415
563.0,0.3501
564.0,0.3399
565.0,0.3364
566.0,0.331
567.0,0.3365
568.0,0.3317
569.0,0.3204
570.0,0.3207
571.0,0.3196
572.0,0.325
573.0,0.328
574.0,0.3264
575.0,0.3195
576.0,0.3167
577.0,0.3205
578.0,0.3167
579.0,0.3196
580.0,0.3282
581.0,0.3318
582.0,0.3399
583.0,0.3421
584.0,0.3461
585.0,0.3382
586.0,0.3313
587.0,0.3375
588.0,0.325
589.0,0.2798
590.0,0.2932
591.0,0.3152
592.0,0.3083
593.0,0.3167
594.0,0.313
595.0,0.3019
596.0,0.3208
597.0,0.3154
598.0,0.3168
599.0,0.3179
600.0,0.3201
601.0,0.3188
602.0,0.3169
603.0,0.3228
604.0,0.3285
605.0,0.3273
606.0,0.3267
607.0,0.3308
608.0,0.3279
609.0,0.3291
610.0,0.3275
611.0,0.3297
612.0,0.3293
613.0,0.3255
614.0,0.3218
615.0,0.3295
616.0,0.3191
617.0,0.3189
618.0,0.3316
619.0,0.3285
620.0,0.3306
621.0,0.3303
622.0,0.326
623.0,0.3206
624.0,0.3156
625.0,0.3148
626.0,0.3193
627.0,0.3212
628.0,0.2803
629.0,0.3066
630.0,0.2989
631.0,0.3124
632.0,0.3099
633.0,0.3222
634.0,0.3213
635.0,0.3275
636.0,0.3244
637.0,0.3307
638.0,0.3355
639.0,0.3326
640.0,0.3304
641.0,0.3309
642.0,0.3303
643.0,0.3348
644.0,0.3346
645.0,0.3347
646.0,0.3245
647.0,0.315
648.0,0.3158
649.0,0.3087
650.0,0.3175
651.0,0.3325
652.0,0.3117
653.0,0.3286
654.0,0.3254
655.0,0.3098
656.0,0.2771
657.0,0.285
658.0,0.3217
659.0,0.3249
660.0,0.3269
661.0,0.3295
662.0,0.3289
663.0,0.3229
664.0,0.3287
665.0,0.3305
666.0,0.3314
667.0,0.3319
668.0,0.3329
669.0,0.3385
670.0,0.3374
671.0,0.3378
672.0,0.3352
673.0,0.3406
674.0,0.3397
675.0,0.337
676.0,0.3396
677.0,0.3365
678.0,0.3378
679.0,0.3326
680.0,0.3355
681.0,0.3334
682.0,0.333
683.0,0.3324
684.0,0.3307
685.0,0.3339
686.0,0.3316
687.0,0.1416
688.0,0.1978
689.0,0.1997
690.0,0.2218
691.0,0.2485
692.0,0.2704
693.0,0.2676
694.0,0.2677
695.0,0.2893
696.0,0.2905
697.0,0.32
698.0,0.3148
699.0,0.299
700.0,0.295
701.0,0.2885
702.0,0.2938
703.0,0.2954
704.0,0.3098
705.0,0.3101
706.0,0.3117
707.0,0.3128
708.0,0.3132
709.0,0.3172
710.0,0.3153
711.0,0.3161
712.0,0.3169
713.0,0.312
714.0,0.3138
715.0,0.3003
716.0,0.2997
717.0,0.2305
718.0,0.2097
719.0,0.1899
720.0,0.1957
721.0,0.2323
722.0,0.2836
723.0,0.2554
724.0,0.2191
725.0,0.2124
726.0,0.223
727.0,0.2336
728.0,0.2106
729.0,0.2285
730.0,0.2389
731.0,0.2271
732.0,0.2537
733.0,0.2782
734.0,0.2882
735.0,0.2804
736.0,0.2794
737.0,0.2807
738.0,0.2933
739.0,0.2878
740.0,0.2977
741.0,0.2962
742.0,0.298
743.0,0.3061
744.0,0.3062
745.0,0.3071
746.0,0.3085
747.0,0.3094
748.0,0.3088
749.0,0.3054
750.0,0.3053
751.0,0.3022
752.0,0.3037
753.0,0.3053
754.0,0.306
755.0,0.3042
756.0,0.3042
757.0,0.3046
758.0,0.3006
759.0,0.289
760.0,0.008217
761.0,0.002774
762.0,0.07327
763.0,0.01805
764.0,0.04042
765.0,0.07305
766.0,0.1167
767.0,0.1829
768.0,0.2463
769.0,0.2602
770.0,0.2793
771.0,0.2862
772.0,0.2883
773.0,0.2907
774.0,0.2896
775.0,0.2876
776.0,0.2913
777.0,0.2875
778.0,0.2857
779.0,0.2859
780.0,0.2845
781.0,0.2848
782.0,0.2867
783.0,0.2818
784.0,0.2834
785.0,0.2809
786.0,0.2836
787.0,0.2745
788.0,0.2692
789.0,0.2691
790.0,0.2566
791.0,0.2642
792.0,0.2632
793.0,0.2584
794.0,0.2682
795.0,0.2712
796.0,0.2552
797.0,0.2548
798.0,0.2699
799.0,0.2668
800.0,0.2604
801.0,0.2577
802.0,0.2568
803.0,0.2538
804.0,0.2551
805.0,0.2566
806.0,0.2677
807.0,0.2637
808.0,0.2642
809.0,0.2562
810.0,0.2524
811.0,0.2492
812.0,0.2363
813.0,0.2296
814.0,0.1888
815.0,0.1888
816.0,0.1738
817.0,0.1775
818.0,0.1679
819.0,0.1988
820.0,0.1835
821.0,0.2318
822.0,0.2224
823.0,0.1261
824.0,0.2091
825.0,0.2281
826.0,0.2135
827.0,0.2312
828.0,0.1793
829.0,0.2135
830.0,0.2096
831.0,0.2102
832.0,0.2007
833.0,0.221
834.0,0.2083
835.0,0.2414
836.0,0.2222
837.0,0.2421
838.0,0.2301
839.0,0.2388
840.0,0.2452
841.0,0.2398
842.0,0.2433
843.0,0.2463
844.0,0.2412
845.0,0.2516
846.0,0.251
847.0,0.2473
848.0,0.2444
849.0,0.2374
850.0,0.2276
851.0,0.2395
852.0,0.2385
853.0,0.2307
854.0,0.1983
855.0,0.2192
856.0,0.239
857.0,0.2452
858.0,0.243
859.0,0.2439
860.0,0.2447
861.0,0.2432
862.0,0.2473
863.0,0.2531
864.0,0.2406
865.0,0.2386
866.0,0.2145
867.0,0.2239
868.0,0.2437
869.0,0.2387
870.0,0.2456
871.0,0.2422
872.0,0.2415
873.0,0.241
874.0,0.2381
875.0,0.2333
876.0,0.2356
877.0,0.2381
878.0,0.2404
879.0,0.2368
880.0,0.2317
881.0,0.2276
882.0,0.2322
883.0,0.2337
884.0,0.2323
885.0,0.234
886.0,0.2206
887.0,0.2249
888.0,0.2272
889.0,0.2318
890.0,0.2272
891.0,0.2281
892.0,0.2182
893.0,0.2084
894.0,0.1941
895.0,0.175
896.0,0.1629
897.0,0.1309
898.0,0.1469
899.0,0.1019
900.0,0.1564
901.0,0.1068
902.0,0.1381
903.0,0.1347
904.0,0.1923
905.0,0.1829
906.0,0.1685
907.0,0.1216
908.0,0.1274
909.0,0.1434
910.0,0.1161
911.0,0.1326
912.0,0.1385
913.0,0.1173
914.0,0.1186
915.0,0.1273
916.0,0.1066
917.0,0.1456
918.0,0.1083
919.0,0.1521
920.0,0.1626
921.0,0.1681
922.0,0.1424
923.0,0.1634
924.0,0.1432
925.0,0.1408
926.0,0.1407
927.0,0.1651
928.0,0.09887
929.0,0.08471
930.0,0.05774
931.0,0.05439
932.0,0.03133
933.0,0.02251
934.0,0.007117
935.0,0.02522
936.0,0.01197
937.0,0.01208
938.0,0.01608
939.0,0.05245
940.0,0.06949
941.0,0.04473
942.0,0.0554
943.0,0.03089
944.0,0.03829
945.0,0.04786
946.0,0.0173
947.0,0.04607
948.0,0.03323
949.0,0.0694
950.0,0.01028
951.0,0.06893
952.0,0.02828
953.0,0.04226
954.0,0.05862
955.0,0.04355
956.0,0.05054
957.0,0.02801
958.0,0.07856
959.0,0.05308
960.0,0.0596
961.0,0.07436
962.0,0.07016
963.0,0.08767
964.0,0.07847
965.0,0.08675
966.0,0.08639
967.0,0.08483
968.0,0.1425
969.0,0.1439
970.0,0.13
971.0,0.1617
972.0,0.1516
973.0,0.1191
974.0,0.1124
975.0,0.1203
976.0,0.1069
977.0,0.1374
978.0,0.124
979.0,0.1332
980.0,0.1237
981.0,0.161
982.0,0.1492
983.0,0.1407
984.0,0.1722
985.0,0.1482
986.0,0.1793
987.0,0.1717
988.0,0.1718
989.0,0.1815
990.0,0.1706
991.0,0.1816
992.0,0.1831
993.0,0.1747
994.0,0.1836
995.0,0.184
996.0,0.1825
997.0,0.1831
998.0,0.182
999.0,0.1815
1000.0,0.1791
1001.0,0.1826
1002.0,0.1728
1003.0,0.1791
1004.0,0.1735
1005.0,0.1688
1006.0,0.1746
1007.0,0.1787
1008.0,0.1769
1009.0,0.1751
1010.0,0.1738
1011.0,0.1779
1012.0,0.1755
1013.0,0.1778
1014.0,0.1765
1015.0,0.1752
1016.0,0.1743
1017.0,0.1746
1018.0,0.1745
1019.0,0.169
1020.0,0.1733
1021.0,0.1734
1022.0,0.1714
1023.0,0.1731
1024.0,0.169
1025.0,0.1736
1026.0,0.1724
1027.0,0.1721
1028.0,0.1716
1029.0,0.1693
1030.0,0.1712
1031.0,0.1702
1032.0,0.1699
1033.0,0.1673
1034.0,0.1674
1035.0,0.1679
1036.0,0.1686
1037.0,0.1659
1038.0,0.1666
1039.0,0.1664
1040.0,0.1657
1041.0,0.1662
1042.0,0.165
1043.0,0.1643
1044.0,0.1648
1045.0,0.1625
1046.0,0.1605
1047.0,0.1619
1048.0,0.1626
1049.0,0.1619
1050.0,0.1609
1051.0,0.1605
1052.0,0.1597
1053.0,0.1582
1054.0,0.1583
1055.0,0.1581
1056.0,0.1572
1057.0,0.1565
1058.0,0.1524
1059.0,0.1522
1060.0,0.1518
1061.0,0.1515
1062.0,0.152
1063.0,0.1503
1064.0,0.1521
1065.0,0.1503
1066.0,0.1479
1067.0,0.1496
1068.0,0.1459
1069.0,0.1418
1070.0,0.1462
1071.0,0.15
1072.0,0.1471
1073.0,0.1452
1074.0,0.1508
1075.0,0.139
1076.0,0.1504
1077.0,0.1454
1078.0,0.1413
1079.0,0.1489
1080.0,0.1431
1081.0,0.1362
1082.0,0.1422
1083.0,0.1438
1084.0,0.1351
1085.0,0.1438
1086.0,0.1256
1087.0,0.1332
1088.0,0.1429
1089.0,0.134
1090.0,0.1292
1091.0,0.1413
1092.0,0.1417
1093.0,0.1093
1094.0,0.1282
1095.0,0.1141
1096.0,0.1064
1097.0,0.1385
1098.0,0.103
1099.0,0.1089
1100.0,0.0974
1101.0,0.1002
1102.0,0.09268
1103.0,0.08972
1104.0,0.09019
1105.0,0.1055
1106.0,0.06491
1107.0,0.09734
1108.0,0.07312
1109.0,0.07452
1110.0,0.09411
1111.0,0.05138
1112.0,0.07449
1113.0,0.03617
1114.0,0.04067
1115.0,0.03269
1116.0,0.0209
1117.0,0.003993
1118.0,0.02371
1119.0,0.008036
1120.0,0.009516
1121.0,0.0143
1122.0,0.003552
1123.0,0.00872
1124.0,0.007308
1125.0,0.01045
1126.0,0.001521
1127.0,0.01201
1128.0,0.004522
1129.0,0.004992
1130.0,0.003013
1131.0,0.03174
1132.0,0.02296
1133.0,0.009985
1134.0,0.001141
1135.0,0.0005166
1136.0,0.006976
1137.0,0.02932
1138.0,0.01961
1139.0,0.04114
1140.0,0.02968
1141.0,0.01881
1142.0,0.02358
1143.0,0.03901
1144.0,0.008869
1145.0,0.009546
1146.0,0.01026
1147.0,0.001657
1148.0,0.03275
1149.0,0.023
1150.0,0.0107
1151.0,0.01949
1152.0,0.02774
1153.0,0.03022
1154.0,0.009803
1155.0,0.04281
1156.0,0.03597
1157.0,0.04631
1158.0,0.04558
1159.0,0.05159
1160.0,0.04247
1161.0,0.05978
1162.0,0.05917
1163.0,0.09479
1164.0,0.07609
1165.0,0.06656
1166.0,0.07062
1167.0,0.07938
1168.0,0.07923
1169.0,0.08234
1170.0,0.09424
1171.0,0.09186
1172.0,0.09688
1173.0,0.09415
1174.0,0.05716
1175.0,0.09515
1176.0,0.1114
1177.0,0.1022
1178.0,0.06886
1179.0,0.1122
1180.0,0.0929
1181.0,0.09607
1182.0,0.05712
1183.0,0.09601
1184.0,0.08677
1185.0,0.0808
1186.0,0.1057
1187.0,0.09742
1188.0,0.05622
1189.0,0.09034
1190.0,0.1042
1191.0,0.09222
1192.0,0.1063
1193.0,0.09956
1194.0,0.1041
1195.0,0.09396
1196.0,0.08813
1197.0,0.1059
1198.0,0.09514
1199.0,0.0719
1200.0,0.09831
1201.0,0.09135
1202.0,0.09397
1203.0,0.09106
1204.0,0.07615
1205.0,0.09851
1206.0,0.1132
1207.0,0.09227
1208.0,0.09359
1209.0,0.09587
1210.0,0.102
1211.0,0.09408
1212.0,0.08752
1213.0,0.1068
1214.0,0.0915
1215.0,0.08939
1216.0,0.1071
1217.0,0.1026
1218.0,0.1061
1219.0,0.1036
1220.0,0.1064
1221.0,0.1087
1222.0,0.1051
1223.0,0.1033
1224.0,0.1006
1225.0,0.1075
1226.0,0.1098
1227.0,0.09627
1228.0,0.1114
1229.0,0.1098
1230.0,0.107
1231.0,0.1133
1232.0,0.1125
1233.0,0.1043
1234.0,0.1142
1235.0,0.1128
1236.0,0.1141
1237.0,0.1109
1238.0,0.1138
1239.0,0.1123
1240.0,0.1129
1241.0,0.1112
1242.0,0.112
1243.0,0.1112
1244.0,0.1116
1245.0,0.1123
1246.0,0.1117
1247.0,0.1109
1248.0,0.1103
1249.0,0.1111
1250.0,0.1101
1251.0,0.1079
1252.0,0.1089
1253.0,0.1063
1254.0,0.104
1255.0,0.1083
1256.0,0.1022
1257.0,0.101
1258.0,0.1054
1259.0,0.09688
1260.0,0.09796
1261.0,0.08687
1262.0,0.08143
1263.0,0.08145
1264.0,0.06906
1265.0,0.08103
1266.0,0.07428
1267.0,0.07814
1268.0,0.07009
1269.0,0.02422
1270.0,0.07685
1271.0,0.08734
1272.0,0.08816
1273.0,0.0866
1274.0,0.08774
1275.0,0.09001
1276.0,0.09201
1277.0,0.09413
1278.0,0.09813
1279.0,0.09717
1280.0,0.09606
1281.0,0.09273
1282.0,0.09113
1283.0,0.09777
1284.0,0.0998
1285.0,0.1008
1286.0,0.1031
1287.0,0.0997
1288.0,0.1003
1289.0,0.09354
1290.0,0.09955
1291.0,0.1016
1292.0,0.0892
1293.0,0.0982
1294.0,0.09727
1295.0,0.09455
1296.0,0.08662
1297.0,0.07944
1298.0,0.09118
1299.0,0.09885
1300.0,0.07456
1301.0,0.07827
1302.0,0.09112
1303.0,0.07436
1304.0,0.0556
1305.0,0.08883
1306.0,0.08775
1307.0,0.05964
1308.0,0.07587
1309.0,0.08549
1310.0,0.05766
1311.0,0.07081
1312.0,0.068
1313.0,0.06442
1314.0,0.05471
1315.0,0.05241
1316.0,0.06815
1317.0,0.06328
1318.0,0.07229
1319.0,0.04722
1320.0,0.04735
1321.0,0.05859
1322.0,0.05734
1323.0,0.03595
1324.0,0.04675
1325.0,0.06588
1326.0,0.05207
1327.0,0.04829
1328.0,0.039
1329.0,0.0234
1330.0,0.03375
1331.0,0.0147
1332.0,0.01656
1333.0,0.02409
1334.0,0.02453
1335.0,0.03498
1336.0,0.02416
1337.0,0.02079
1338.0,0.02202
1339.0,0.02258
1340.0,0.02369
1341.0,0.01898
1342.0,0.02056
1343.0,0.008619
1344.0,0.005665
1345.0,0.007586
1346.0,0.001806
1347.0,0.001559
1348.0,2.622e-05
1349.0,0.0001217
1350.0,0.0001498
1351.0,1.165e-05
1352.0,1.215e-06
1353.0,5.276e-08
1354.0,2.107e-07
1355.0,1.372e-09
1356.0,2.561e-08
1357.0,3.878e-08
1358.0,1.613e-09
1359.0,2.017e-10
1360.0,7.306e-10
1361.0,8.152e-13
1362.0,2.23e-15
1363.0,9.803e-10
1364.0,4.049e-10
1365.0,7.786e-16
1366.0,4.25e-09
1367.0,1.739e-09
1368.0,6.012e-18
1369.0,1.492e-10
1370.0,7.343e-11
1371.0,4.162e-12
1372.0,9.439e-10
1373.0,1.936e-08
1374.0,9.506e-08
1375.0,1.664e-07
1376.0,1.846e-07
1377.0,8.128e-08
1378.0,7.829e-07
1379.0,3.497e-08
1380.0,4.282e-08
1381.0,1.098e-09
1382.0,8.261e-10
1383.0,1.234e-11
1384.0,1.616e-10
1385.0,7.846e-10
1386.0,7.27e-10
1387.0,8.962e-08
1388.0,1.858e-09
1389.0,3.374e-07
1390.0,2.808e-07
1391.0,1.881e-07
1392.0,1.243e-08
1393.0,7.119e-08
1394.0,3.041e-08
1395.0,2.213e-10
1396.0,1.061e-12
1397.0,2.619e-08
1398.0,7.993e-07
1399.0,5.2e-07
1400.0,4.538e-13
1401.0,1.883e-12
1402.0,4.02e-06
1403.0,3.587e-06
1404.0,9.126e-07
1405.0,1.042e-10
1406.0,1.673e-06
1407.0,2.83e-07
1408.0,1.452e-06
1409.0,3.68e-07
1410.0,4.163e-07
1411.0,3.371e-06
1412.0,6.718e-06
1413.0,0.0001755
1414.0,3.585e-07
1415.0,1.44e-07
1416.0,0.0008186
1417.0,0.0001302
1418.0,8.497e-05
1419.0,1.144e-05
1420.0,5.091e-05
1421.0,8.756e-05
