interpolation:linear
wavelength,value
280.0,1.7160000000000003e-20
280.5,5.04e-19
281.0,2.605e-18
281.5,4.165e-19
282.0,1.591e-18
282.5,4.376e-18
283.0,1.439e-17
283.5,2.366e-17
284.0,3.761e-16
284.5,1.068e-15
285.0,1.93e-15
285.5,1.073e-14
286.0,4.435e-14
286.5,2.037e-13
287.0,5.871e-13
287.5,2.25e-12
288.0,6.273e-12
288.5,2.372e-11
289.0,7.571e-11
289.5,2.687e-10
290.0,8.381e-10
290.5,1.873e-09
291.0,4.452e-09
291.5,1.443e-08
292.0,3.872e-08
292.5,6.143e-08
293.0,1.545e-07
293.5,4.711e-07
294.0,8.728e-07
294.5,1.163e-06
295.0,2.327e-06
295.5,6.076e-06
296.0,1.187e-05
296.5,1.68e-05
297.0,2.297e-05
297.5,6.246e-05
298.0,9.96e-05
298.5,0.0001011
299.0,0.000225
299.5,0.000379
300.0,0.0004208
300.5,0.0006156
301.0,0.001133
301.5,0.001841
302.0,0.001595
302.5,0.003053
303.0,0.005337
303.5,0.0066
304.0,0.00612
304.5,0.008818
305.0,0.01272
305.5,0.01413
306.0,0.01351
306.5,0.01649
307.0,0.0234
307.5,0.02982
308.0,0.03129
308.5,0.03619
309.0,0.03516
309.5,0.03908
310.0,0.03874
310.5,0.06233
311.0,0.07736
311.5,0.07432
312.0,0.0725
312.5,0.08678
313.0,0.09331
313.5,0.09134
314.0,0.1119
314.5,0.09665
315.0,0.1264
315.5,0.1071
316.0,0.09155
316.5,0.129
317.0,0.1602
317.5,0.1676
318.0,0.1291
318.5,0.1564
319.0,0.1832
319.5,0.1524
320.0,0.1847
320.5,0.2253
321.0,0.1961
321.5,0.1876
322.0,0.2049
322.5,0.178
323.0,0.1745
323.5,0.2112
324.0,0.2459
324.5,0.2513
325.0,0.2189
325.5,0.2779
326.0,0.3385
326.5,0.336
327.0,0.3359
327.5,0.3258
328.0,0.2935
328.5,0.3041
329.0,0.3601
329.5,0.4074
330.0,0.4121
330.5,0.3327
331.0,0.3399
331.5,0.3433
332.0,0.3674
332.5,0.3619
333.0,0.3617
333.5,0.3296
334.0,0.3381
334.5,0.3871
335.0,0.3621
335.5,0.4229
336.0,0.2926
336.5,0.3434
337.0,0.2827
337.5,0.352
338.0,0.3415
338.5,0.3941
339.0,0.39
339.5,0.3751
340.0,0.441
340.5,0.3972
341.0,0.3875
341.5,0.3557
342.0,0.425
342.5,0.3976
343.0,0.4374
343.5,0.4119
344.0,0.3044
344.5,0.3075
345.0,0.4068
345.5,0.4153
346.0,0.3529
346.5,0.3996
347.0,0.429
347.5,0.3469
348.0,0.3954
348.5,0.3952
349.0,0.3666
349.5,0.363
350.0,0.4489
350.5,0.4736
351.0,0.4231
351.5,0.4113
352.0,0.4417
352.5,0.3447
353.0,0.4341
353.5,0.4642
354.0,0.4819
354.5,0.4887
355.0,0.4871
355.5,0.4401
356.0,0.4604
356.5,0.3931
357.0,0.3249
357.5,0.3977
358.0,0.3152
358.5,0.2694
359.0,0.3768
359.5,0.4803
360.0,0.5091
360.5,0.4069
361.0,0.371
361.5,0.4271
362.0,0.3694
362.5,0.5112
363.0,0.4591
363.5,0.4229
364.0,0.5172
364.5,0.4421
365.0,0.4503
365.5,0.5652
366.0,0.5989
366.5,0.5627
367.0,0.548
367.5,0.5688
368.0,0.4977
368.5,0.5023
369.0,0.5425
369.5,0.5782
370.0,0.6164
370.5,0.4785
371.0,0.5113
371.5,0.6397
372.0,0.4246
372.5,0.5091
373.0,0.5179
373.5,0.337
374.0,0.4897
374.5,0.4056
375.0,0.3943
375.5,0.5887
376.0,0.4881
376.5,0.5058
377.0,0.5356
377.5,0.6266
378.0,0.6793
378.5,0.6421
379.0,0.53
379.5,0.4842
380.0,0.5034
380.5,0.6098
381.0,0.6111
381.5,0.4844
382.0,0.4302
382.5,0.3668
383.0,0.3396
383.5,0.3271
384.0,0.3609
384.5,0.5308
385.0,0.5264
385.5,0.4903
386.0,0.42
386.5,0.5517
387.0,0.4585
387.5,0.515
388.0,0.4755
388.5,0.4701
389.0,0.5075
389.5,0.6147
390.0,0.6169
390.5,0.5678
391.0,0.6684
391.5,0.6818
392.0,0.5743
392.5,0.5142
393.0,0.2861
393.5,0.208
394.0,0.4233
394.5,0.5382
395.0,0.6568
395.5,0.6672
396.0,0.5785
396.5,0.3382
397.0,0.2538
397.5,0.5163
398.0,0.723
398.5,0.7474
399.0,0.8094
399.5,0.8068
400.0,0.8378
401.0,0.8507
402.0,0.8976
403.0,0.8527
404.0,0.8397
405.0,0.8397
406.0,0.8261
407.0,0.8128
408.0,0.8446
409.0,0.9041
410.0,0.79
411.0,0.8557
412.0,0.9191
413.0,0.8964
414.0,0.9074
415.0,0.9099
416.0,0.9258
417.0,0.9031
418.0,0.8864
419.0,0.8981
420.0,0.8942
421.0,0.9355
422.0,0.8892
423.0,0.8687
424.0,0.9188
425.0,0.9172
426.0,0.8933
427.0,0.8767
428.0,0.854
429.0,0.8089
430.0,0.7079
431.0,0.7017
432.0,0.906
433.0,0.911
434.0,0.846
435.0,0.8836
436.0,0.9955
437.0,0.982
438.0,0.8942
439.0,0.925
440.0,0.9545
441.0,0.9889
442.0,1.061
443.0,1.033
444.0,1.056
445.0,1.033
446.0,0.9855
447.0,1.065
448.0,1.082
449.0,1.086
450.0,1.116
451.0,1.158
452.0,1.115
453.0,1.049
454.0,1.095
455.0,1.102
456.0,1.128
457.0,1.147
458.0,1.108
459.0,1.102
460.0,1.105
461.0,1.131
462.0,1.139
463.0,1.131
464.0,1.112
465.0,1.098
466.0,1.109
467.0,1.089
468.0,1.101
469.0,1.107
470.0,1.072
471.0,1.07
472.0,1.128
473.0,1.113
474.0,1.115
475.0,1.125
476.0,1.092
477.0,1.095
478.0,1.125
479.0,1.118
480.0,1.12
481.0,1.141
482.0,1.146
483.0,1.132
484.0,1.109
485.0,1.056
486.0,0.9234
487.0,0.9675
488.0,1.062
489.0,1.065
490.0,1.12
491.0,1.101
492.0,1.04
493.0,1.074
494.0,1.084
495.0,1.093
496.0,1.1
497.0,1.117
498.0,1.065
499.0,1.079
500.0,1.047
501.0,1.028
502.0,1.014
503.0,1.056
504.0,1.03
505.0,1.066
506.0,1.101
507.0,1.047
508.0,1.014
509.0,1.043
510.0,1.037
511.0,1.064
512.0,1.076
513.0,1.018
514.0,1.011
515.0,1.001
516.0,0.9987
517.0,0.8874
518.0,0.9329
519.0,0.9785
520.0,1.014
521.0,1.024
522.0,1.025
523.0,1.006
524.0,1.043
525.0,1.055
526.0,1.008
527.0,0.9501
528.0,1.005
529.0,1.059
530.0,1.044
531.0,1.06
532.0,1.023
533.0,0.9935
534.0,1.023
535.0,1.045
536.0,1.054
537.0,1.013
538.0,1.031
539.0,1.022
540.0,0.9799
541.0,0.9866
542.0,1.018
543.0,1.007
544.0,1.024
545.0,1.021
546.0,1.026
547.0,1.025
548.0,1.013
549.0,1.016
550.0,1.028
551.0,1.015
552.0,1.022
553.0,1.004
554.0,1.028
555.0,1.03
556.0,1.017
557.0,0.9855
558.0,0.9782
559.0,0.9601
560.0,0.9722
561.0,0.9849
562.0,0.978
563.0,1.005
564.0,0.9777
565.0,0.9694
566.0,0.9553
567.0,0.9735
568.0,0.9653
569.0,0.9433
570.0,0.9429
571.0,0.937
572.0,0.9601
573.0,0.9704
574.0,0.9675
575.0,0.9496
576.0,0.9409
577.0,0.9511
578.0,0.9366
579.0,0.9398
580.0,0.9571
581.0,0.9616
582.0,0.9793
583.0,0.9814
584.0,0.9897
585.0,0.9654
586.0,0.9455
587.0,0.9665
588.0,0.9441
589.0,0.8387
590.0,0.8768
591.0,0.9266
592.0,0.9156
593.0,0.9282
594.0,0.9222
595.0,0.9002
596.0,0.9339
597.0,0.9242
598.0,0.9213
599.0,0.9219
600.0,0.9228
601.0,0.9149
602.0,0.9087
603.0,0.9235
604.0,0.9387
605.0,0.9338
606.0,0.9298
607.0,0.9388
608.0,0.9282
609.0,0.9297
610.0,0.9228
611.0,0.9276
612.0,0.9247
613.0,0.913
614.0,0.9004
615.0,0.9198
616.0,0.8894
617.0,0.8875
618.0,0.9216
619.0,0.9122
620.0,0.918
621.0,0.919
622.0,0.9084
623.0,0.8947
624.0,0.8793
625.0,0.8773
626.0,0.8903
627.0,0.9006
628.0,0.8457
629.0,0.8809
630.0,0.8608
631.0,0.8787
632.0,0.8679
633.0,0.8936
634.0,0.8844
635.0,0.8979
636.0,0.8858
637.0,0.9001
638.0,0.9084
639.0,0.898
640.0,0.8891
641.0,0.8884
642.0,0.8842
643.0,0.896
644.0,0.893
645.0,0.8945
646.0,0.8742
647.0,0.865
648.0,0.866
649.0,0.8493
650.0,0.8518
651.0,0.8884
652.0,0.8532
653.0,0.8766
654.0,0.8667
655.0,0.8353
656.0,0.7397
657.0,0.7595
658.0,0.8507
659.0,0.8565
660.0,0.86
661.0,0.866
662.0,0.8681
663.0,0.8508
664.0,0.8604
665.0,0.8608
666.0,0.8613
667.0,0.8603
668.0,0.8605
669.0,0.8737
670.0,0.8699
671.0,0.8696
672.0,0.8621
673.0,0.875
674.0,0.8717
675.0,0.8637
676.0,0.8695
677.0,0.8608
678.0,0.8632
679.0,0.8492
680.0,0.856
681.0,0.8503
682.0,0.8492
683.0,0.8476
684.0,0.8434
685.0,0.8505
686.0,0.8456
687.0,0.5811
688.0,0.6716
689.0,0.6737
690.0,0.7035
691.0,0.7369
692.0,0.7609
693.0,0.7549
694.0,0.7486
695.0,0.7772
696.0,0.7783
697.0,0.8229
698.0,0.8102
699.0,0.7928
700.0,0.7833
701.0,0.7759
702.0,0.7806
703.0,0.782
704.0,0.8058
705.0,0.807
706.0,0.8059
707.0,0.8063
708.0,0.8081
709.0,0.8085
710.0,0.8088
711.0,0.8075
712.0,0.8047
713.0,0.7969
714.0,0.7999
715.0,0.7753
716.0,0.776
717.0,0.6803
718.0,0.626
719.0,0.5741
720.0,0.6019
721.0,0.66
722.0,0.7503
723.0,0.701
724.0,0.6344
725.0,0.6252
726.0,0.654
727.0,0.6617
728.0,0.624
729.0,0.6448
730.0,0.6823
731.0,0.6536
732.0,0.6964
733.0,0.7345
734.0,0.7513
735.0,0.7361
736.0,0.7351
737.0,0.7381
738.0,0.7477
739.0,0.733
740.0,0.7516
741.0,0.7438
742.0,0.7442
743.0,0.763
744.0,0.7607
745.0,0.7607
746.0,0.7641
747.0,0.7658
748.0,0.7642
749.0,0.7554
750.0,0.755
751.0,0.7473
752.0,0.7505
753.0,0.7543
754.0,0.756
755.0,0.7517
756.0,0.7513
757.0,0.7524
758.0,0.7431
759.0,0.729
760.0,0.1395
761.0,0.07679
762.0,0.392
763.0,0.2065
764.0,0.3011
765.0,0.3921
766.0,0.4726
767.0,0.5875
768.0,0.671
769.0,0.6836
770.0,0.7051
771.0,0.71
772.0,0.7112
773.0,0.7161
774.0,0.7126
775.0,0.7072
776.0,0.7157
777.0,0.7063
778.0,0.702
779.0,0.7026
780.0,0.6987
781.0,0.6994
782.0,0.7037
783.0,0.6914
784.0,0.6947
785.0,0.6897
786.0,0.6973
787.0,0.6859
788.0,0.6777
789.0,0.6775
790.0,0.6606
791.0,0.6652
792.0,0.6602
793.0,0.6496
794.0,0.6596
795.0,0.6711
796.0,0.6519
797.0,0.6528
798.0,0.6704
799.0,0.6664
800.0,0.6552
801.0,0.6535
802.0,0.6516
803.0,0.6468
804.0,0.6475
805.0,0.6451
806.0,0.6625
807.0,0.6546
808.0,0.6552
809.0,0.6434
810.0,0.6385
811.0,0.64
812.0,0.6227
813.0,0.6104
814.0,0.5403
815.0,0.5369
816.0,0.5002
817.0,0.5089
818.0,0.4906
819.0,0.5456
820.0,0.515
821.0,0.598
822.0,0.5815
823.0,0.4018
824.0,0.566
825.0,0.5878
826.0,0.5667
827.0,0.5967
828.0,0.5095
829.0,0.563
830.0,0.556
831.0,0.5578
832.0,0.5413
833.0,0.5742
834.0,0.555
835.0,0.6072
836.0,0.5828
837.0,0.6088
838.0,0.5906
839.0,0.5995
840.0,0.6124
841.0,0.604
842.0,0.6049
843.0,0.6041
844.0,0.5959
845.0,0.6157
846.0,0.6129
847.0,0.6014
848.0,0.5979
849.0,0.5809
850.0,0.5565
851.0,0.5894
852.0,0.5852
853.0,0.5631
854.0,0.4863
855.0,0.5341
856.0,0.5838
857.0,0.5967
858.0,0.5923
859.0,0.5928
860.0,0.5938
861.0,0.5905
862.0,0.5998
863.0,0.614
864.0,0.5832
865.0,0.5781
866.0,0.5198
867.0,0.5425
868.0,0.5903
869.0,0.5781
870.0,0.5945
871.0,0.5864
872.0,0.5844
873.0,0.5832
874.0,0.5762
875.0,0.5646
876.0,0.5705
877.0,0.5762
878.0,0.5825
879.0,0.5735
880.0,0.5612
881.0,0.5529
882.0,0.5649
883.0,0.5666
884.0,0.564
885.0,0.5683
886.0,0.5419
887.0,0.5474
888.0,0.5556
889.0,0.5617
890.0,0.5573
891.0,0.5562
892.0,0.5405
893.0,0.524
894.0,0.5064
895.0,0.4796
896.0,0.4522
897.0,0.3899
898.0,0.4247
899.0,0.3247
900.0,0.4339
901.0,0.3403
902.0,0.3971
903.0,0.4017
904.0,0.5026
905.0,0.4858
906.0,0.455
907.0,0.3717
908.0,0.3788
909.0,0.4094
910.0,0.3638
911.0,0.3867
912.0,0.4039
913.0,0.3692
914.0,0.3658
915.0,0.3964
916.0,0.336
917.0,0.4246
918.0,0.3446
919.0,0.4319
920.0,0.4354
921.0,0.4527
922.0,0.4059
923.0,0.4372
924.0,0.4161
925.0,0.407
926.0,0.4115
927.0,0.4596
928.0,0.3402
929.0,0.3113
930.0,0.2458
931.0,0.2327
932.0,0.1687
933.0,0.1376
934.0,0.0766
935.0,0.1404
936.0,0.08837
937.0,0.08964
938.0,0.11
939.0,0.2255
940.0,0.2705
941.0,0.2051
942.0,0.2369
943.0,0.1565
944.0,0.1642
945.0,0.2113
946.0,0.1085
947.0,0.2125
948.0,0.1563
949.0,0.2836
950.0,0.08015
951.0,0.2791
952.0,0.1511
953.0,0.1944
954.0,0.2375
955.0,0.1965
956.0,0.1903
957.0,0.1514
958.0,0.2685
959.0,0.2142
960.0,0.2401
961.0,0.2688
962.0,0.2544
963.0,0.2927
964.0,0.2683
965.0,0.2916
966.0,0.2917
967.0,0.2906
968.0,0.3875
969.0,0.4049
970.0,0.3721
971.0,0.425
972.0,0.4068
973.0,0.3551
974.0,0.3371
975.0,0.3496
976.0,0.3324
977.0,0.3773
978.0,0.3589
979.0,0.3756
980.0,0.3533
981.0,0.4225
982.0,0.4043
983.0,0.3884
984.0,0.435
985.0,0.4028
986.0,0.4424
987.0,0.434
988.0,0.4332
989.0,0.4409
990.0,0.4306
991.0,0.4423
992.0,0.4448
993.0,0.4351
994.0,0.4446
995.0,0.4441
996.0,0.4421
997.0,0.4427
998.0,0.4407
999.0,0.4391
1000.0,0.436
1001.0,0.4414
1002.0,0.4295
1003.0,0.4336
1004.0,0.4231
1005.0,0.4075
1006.0,0.4234
1007.0,0.4324
1008.0,0.4301
1009.0,0.4278
1010.0,0.426
1011.0,0.4302
1012.0,0.4265
1013.0,0.4291
1014.0,0.4261
1015.0,0.4233
1016.0,0.4214
1017.0,0.4225
1018.0,0.4209
1019.0,0.412
1020.0,0.4187
1021.0,0.4181
1022.0,0.4149
1023.0,0.4193
1024.0,0.4139
1025.0,0.419
1026.0,0.4172
1027.0,0.4162
1028.0,0.4153
1029.0,0.4105
1030.0,0.4132
1031.0,0.4116
1032.0,0.4104
1033.0,0.4042
1034.0,0.4042
1035.0,0.4055
1036.0,0.4076
1037.0,0.401
1038.0,0.4027
1039.0,0.4025
1040.0,0.4009
1041.0,0.4025
1042.0,0.3997
1043.0,0.3984
1044.0,0.3998
1045.0,0.3944
1046.0,0.3901
1047.0,0.3936
1048.0,0.3957
1049.0,0.3943
1050.0,0.3925
1051.0,0.392
1052.0,0.3904
1053.0,0.3873
1054.0,0.3881
1055.0,0.3884
1056.0,0.387
1057.0,0.3858
1058.0,0.3763
1059.0,0.3768
1060.0,0.3762
1061.0,0.3757
1062.0,0.3777
1063.0,0.374
1064.0,0.3784
1065.0,0.3757
1066.0,0.3683
1067.0,0.373
1068.0,0.3649
1069.0,0.3536
1070.0,0.3657
1071.0,0.3713
1072.0,0.367
1073.0,0.3617
1074.0,0.371
1075.0,0.3526
1076.0,0.3707
1077.0,0.3642
1078.0,0.3574
1079.0,0.3648
1080.0,0.3586
1081.0,0.3472
1082.0,0.3526
1083.0,0.3536
1084.0,0.3464
1085.0,0.3594
1086.0,0.3283
1087.0,0.3386
1088.0,0.3533
1089.0,0.3427
1090.0,0.3353
1091.0,0.3522
1092.0,0.3513
1093.0,0.2984
1094.0,0.3215
1095.0,0.3109
1096.0,0.2978
1097.0,0.3431
1098.0,0.2932
1099.0,0.3058
1100.0,0.2845
1101.0,0.288
1102.0,0.2752
1103.0,0.2727
1104.0,0.273
1105.0,0.2988
1106.0,0.2296
1107.0,0.284
1108.0,0.2414
1109.0,0.2417
1110.0,0.2816
1111.0,0.1918
1112.0,0.2398
1113.0,0.1535
1114.0,0.1714
1115.0,0.1421
1116.0,0.1139
1117.0,0.04231
1118.0,0.1238
1119.0,0.0618
1120.0,0.07782
1121.0,0.1031
1122.0,0.04367
1123.0,0.07031
1124.0,0.05935
1125.0,0.07734
1126.0,0.0272
1127.0,0.08721
1128.0,0.05248
1129.0,0.05565
1130.0,0.03673
1131.0,0.1647
1132.0,0.1293
1133.0,0.08234
1134.0,0.02126
1135.0,0.007954
1136.0,0.06882
1137.0,0.1619
1138.0,0.1141
1139.0,0.1694
1140.0,0.1418
1141.0,0.1084
1142.0,0.1246
1143.0,0.1766
1144.0,0.06206
1145.0,0.07941
1146.0,0.08565
1147.0,0.03041
1148.0,0.1528
1149.0,0.1223
1150.0,0.06672
1151.0,0.1132
1152.0,0.1391
1153.0,0.1353
1154.0,0.077
1155.0,0.1767
1156.0,0.1593
1157.0,0.1785
1158.0,0.1765
1159.0,0.1902
1160.0,0.1628
1161.0,0.1999
1162.0,0.201
1163.0,0.27
1164.0,0.2321
1165.0,0.2195
1166.0,0.2176
1167.0,0.2367
1168.0,0.2395
1169.0,0.245
1170.0,0.2657
1171.0,0.2592
1172.0,0.2635
1173.0,0.2652
1174.0,0.1909
1175.0,0.2588
1176.0,0.2836
1177.0,0.2728
1178.0,0.2061
1179.0,0.2859
1180.0,0.2561
1181.0,0.2642
1182.0,0.1837
1183.0,0.26
1184.0,0.2441
1185.0,0.236
1186.0,0.2783
1187.0,0.2656
1188.0,0.187
1189.0,0.2475
1190.0,0.272
1191.0,0.2591
1192.0,0.2757
1193.0,0.2645
1194.0,0.2724
1195.0,0.2582
1196.0,0.2491
1197.0,0.2722
1198.0,0.2495
1199.0,0.2136
1200.0,0.2612
1201.0,0.2524
1202.0,0.2506
1203.0,0.2486
1204.0,0.2181
1205.0,0.2561
1206.0,0.2821
1207.0,0.2501
1208.0,0.2458
1209.0,0.2507
1210.0,0.2609
1211.0,0.249
1212.0,0.2466
1213.0,0.2731
1214.0,0.2522
1215.0,0.2476
1216.0,0.2722
1217.0,0.2653
1218.0,0.27
1219.0,0.2668
1220.0,0.2702
1221.0,0.2728
1222.0,0.2659
1223.0,0.2635
1224.0,0.2621
1225.0,0.2711
1226.0,0.2727
1227.0,0.2523
1228.0,0.2739
1229.0,0.2727
1230.0,0.2682
1231.0,0.2753
1232.0,0.2737
1233.0,0.2649
1234.0,0.275
1235.0,0.2733
1236.0,0.2752
1237.0,0.2717
1238.0,0.2743
1239.0,0.2708
1240.0,0.2718
1241.0,0.2707
1242.0,0.2699
1243.0,0.2677
1244.0,0.2697
1245.0,0.2708
1246.0,0.2692
1247.0,0.2682
1248.0,0.2681
1249.0,0.2689
1250.0,0.2673
1251.0,0.264
1252.0,0.2639
1253.0,0.262
1254.0,0.2595
1255.0,0.2637
1256.0,0.2567
1257.0,0.2553
1258.0,0.2598
1259.0,0.251
1260.0,0.2522
1261.0,0.2389
1262.0,0.2321
1263.0,0.2326
1264.0,0.2156
1265.0,0.2311
1266.0,0.2229
1267.0,0.2264
1268.0,0.2153
1269.0,0.1376
1270.0,0.2258
1271.0,0.238
1272.0,0.2387
1273.0,0.2362
1274.0,0.2369
1275.0,0.2401
1276.0,0.2423
1277.0,0.2437
1278.0,0.2481
1279.0,0.2459
1280.0,0.2428
1281.0,0.2315
1282.0,0.2228
1283.0,0.24
1284.0,0.2458
1285.0,0.2474
1286.0,0.2506
1287.0,0.247
1288.0,0.2469
1289.0,0.2395
1290.0,0.2447
1291.0,0.248
1292.0,0.2339
1293.0,0.2434
1294.0,0.2417
1295.0,0.2408
1296.0,0.2305
1297.0,0.2184
1298.0,0.2342
1299.0,0.2436
1300.0,0.2077
1301.0,0.2138
1302.0,0.2334
1303.0,0.2048
1304.0,0.1761
1305.0,0.2287
1306.0,0.2289
1307.0,0.1794
1308.0,0.2049
1309.0,0.2272
1310.0,0.1761
1311.0,0.1968
1312.0,0.1917
1313.0,0.1882
1314.0,0.1689
1315.0,0.167
1316.0,0.1939
1317.0,0.1838
1318.0,0.1992
1319.0,0.1573
1320.0,0.1521
1321.0,0.1766
1322.0,0.1786
1323.0,0.1356
1324.0,0.1543
1325.0,0.1912
1326.0,0.1649
1327.0,0.1575
1328.0,0.1362
1329.0,0.1032
1330.0,0.1339
1331.0,0.08189
1332.0,0.08421
1333.0,0.117
1334.0,0.09856
1335.0,0.1351
1336.0,0.1074
1337.0,0.09524
1338.0,0.1031
1339.0,0.1025
1340.0,0.09938
1341.0,0.09766
1342.0,0.1025
1343.0,0.07063
1344.0,0.04223
1345.0,0.06084
1346.0,0.03097
1347.0,0.03161
1348.0,0.002189
1349.0,0.007721
1350.0,0.007915
1351.0,0.002041
1352.0,0.0005883
1353.0,3.228e-05
1354.0,0.0001062
1355.0,9.949e-07
1356.0,1.586e-05
1357.0,2.411e-05
1358.0,1.171e-06
1359.0,1.654e-07
1360.0,5.581e-07
1361.0,7.936e-10
1362.0,2.412e-12
1363.0,7.82e-07
1364.0,3.261e-07
1365.0,9.658e-13
1366.0,3.318e-06
1367.0,1.333e-06
1368.0,9.695e-15
1369.0,1.227e-07
1370.0,6.352e-08
1371.0,3.828e-09
1372.0,7.337e-07
1373.0,1.374e-05
1374.0,6.066e-05
1375.0,0.0001105
1376.0,9.529e-05
1377.0,4.417e-05
1378.0,0.0004228
1379.0,1.86e-05
1380.0,2.766e-05
1381.0,7.463e-07
1382.0,6.708e-07
1383.0,1.051e-08
1384.0,1.415e-07
1385.0,6.018e-07
1386.0,6.181e-07
1387.0,6.495e-05
1388.0,1.286e-06
1389.0,0.0002084
1390.0,0.0001795
1391.0,0.0001211
1392.0,8.017e-06
1393.0,4.139e-05
1394.0,2.325e-05
1395.0,1.817e-07
1396.0,1.108e-09
1397.0,1.683e-05
1398.0,0.0004777
1399.0,0.0003027
1400.0,5.098e-10
1401.0,1.948e-09
1402.0,0.0007879
1403.0,0.001003
1404.0,0.0003073
1405.0,9.216e-08
1406.0,0.0008169
1407.0,7.113e-05
1408.0,0.0006659
1409.0,0.0002317
1410.0,0.0001814
1411.0,0.0008798
1412.0,0.001168
1413.0,0.01151
1414.0,0.0001425
1415.0,6.957e-05
1416.0,0.01854
1417.0,0.005696
1418.0,0.006501
1419.0,0.001013
1420.0,0.003981
1421.0,0.004305
1422.0,0.02418
1423.0,0.004705
1424.0,0.008802
1425.0,0.01298
1426.0,0.01468
1427.0,0.02688
1428.0,0.002066
1429.0,0.02014
1430.0,0.03425
1431.0,0.0376
1432.0,0.001628
1433.0,0.02393
1434.0,0.01217
1435.0,0.01218
1436.0,0.0235
1437.0,0.01801
1438.0,0.007604
1439.0,0.03196
1440.0,0.02394
1441.0,0.01823
1442.0,0.02022
1443.0,0.02543
1444.0,0.03527
1445.0,0.02754
1446.0,0.01237
