interpolation:linear
wavelength,value
280.0,7.544e-22
280.5,1.608e-20
281.0,7.448000000000001e-20
281.5,1.629e-18
282.0,1.05e-17
282.5,3.49e-17
283.0,1.323e-16
283.5,2.296e-16
284.0,4.279e-15
284.5,1.269e-14
285.0,3.495e-14
285.5,2.318e-13
286.0,1.011e-12
286.5,5.119e-12
287.0,1.563e-11
287.5,6.364e-11
288.0,2.167e-10
288.5,7.98e-10
289.0,2.479e-09
289.5,8.532e-09
290.0,2.593e-08
290.5,5.666e-08
291.0,1.311e-07
291.5,4.118e-07
292.0,9.217e-07
292.5,1.324e-06
293.0,2.918e-06
293.5,7.351e-06
294.0,1.179e-05
294.5,2.297e-05
295.0,4.027e-05
295.5,8.336e-05
296.0,0.0001469
296.5,0.0001879
297.0,0.0002365
297.5,0.0005694
298.0,0.0008194
298.5,0.0007687
299.0,0.001584
299.5,0.002335
300.0,0.002407
300.5,0.003261
301.0,0.005302
301.5,0.007676
302.0,0.006256
302.5,0.01139
303.0,0.01871
303.5,0.02229
304.0,0.0202
304.5,0.02748
305.0,0.03669
305.5,0.03885
306.0,0.03648
306.5,0.04322
307.0,0.05761
307.5,0.06927
308.0,0.07197
308.5,0.08096
309.0,0.07632
309.5,0.08146
310.0,0.07921
310.5,0.1262
311.0,0.1541
311.5,0.147
312.0,0.1386
312.5,0.1622
313.0,0.1723
313.5,0.1704
314.0,0.2032
314.5,0.1694
315.0,0.22
315.5,0.1895
316.0,0.1574
316.5,0.2164
317.0,0.2688
317.5,0.283
318.0,0.2143
318.5,0.2515
319.0,0.29
319.5,0.2472
320.0,0.3006
320.5,0.3553
321.0,0.3006
321.5,0.2866
322.0,0.3225
322.5,0.2796
323.0,0.2686
323.5,0.3188
324.0,0.3698
324.5,0.3809
325.0,0.3355
325.5,0.4191
326.0,0.5071
326.5,0.498
327.0,0.4996
327.5,0.4867
328.0,0.4444
328.5,0.4527
329.0,0.529
329.5,0.5959
330.0,0.6044
330.5,0.4925
331.0,0.5048
331.5,0.5058
332.0,0.5355
332.5,0.5248
333.0,0.5258
333.5,0.4828
334.0,0.4956
334.5,0.5622
335.0,0.5231
335.5,0.6106
336.0,0.4223
336.5,0.4968
337.0,0.4102
337.5,0.5113
338.0,0.4924
338.5,0.5678
339.0,0.5617
339.5,0.54
340.0,0.6348
340.5,0.5712
341.0,0.5572
341.5,0.5112
342.0,0.6107
342.5,0.571
343.0,0.628
343.5,0.5913
344.0,0.4365
344.5,0.441
345.0,0.5831
345.5,0.595
346.0,0.5053
346.5,0.5719
347.0,0.6139
347.5,0.4962
348.0,0.5653
348.5,0.5648
349.0,0.5237
349.5,0.5183
350.0,0.6407
350.5,0.6756
351.0,0.6035
351.5,0.5866
352.0,0.6297
352.5,0.4911
353.0,0.6182
353.5,0.6608
354.0,0.6858
354.5,0.6954
355.0,0.6929
355.5,0.6256
356.0,0.6543
356.5,0.5586
357.0,0.4615
357.5,0.5649
358.0,0.4476
358.5,0.3824
359.0,0.5348
359.5,0.6816
360.0,0.7224
360.5,0.5772
361.0,0.526
361.5,0.6052
362.0,0.523
362.5,0.7234
363.0,0.6493
363.5,0.5978
364.0,0.7309
364.5,0.6246
365.0,0.6359
365.5,0.7979
366.0,0.845
366.5,0.7937
367.0,0.7727
367.5,0.8017
368.0,0.7014
368.5,0.7076
369.0,0.7639
369.5,0.814
370.0,0.8675
370.5,0.6731
371.0,0.719
371.5,0.8994
372.0,0.5969
372.5,0.7155
373.0,0.7275
373.5,0.4732
374.0,0.6875
374.5,0.5692
375.0,0.5532
375.5,0.8258
376.0,0.6845
376.5,0.7093
377.0,0.7507
377.5,0.8781
378.0,0.9518
378.5,0.8995
379.0,0.7423
379.5,0.6781
380.0,0.7049
380.5,0.8536
381.0,0.8551
381.5,0.6775
382.0,0.6015
382.5,0.5126
383.0,0.4744
383.5,0.4568
384.0,0.5038
384.5,0.7408
385.0,0.7345
385.5,0.6839
386.0,0.5856
386.5,0.769
387.0,0.6389
387.5,0.7175
388.0,0.6624
388.5,0.6546
389.0,0.7065
389.5,0.8556
390.0,0.8585
390.5,0.7899
391.0,0.9296
391.5,0.9481
392.0,0.7984
392.5,0.7146
393.0,0.3975
393.5,0.2889
394.0,0.5878
394.5,0.7472
395.0,0.9116
395.5,0.926
396.0,0.8027
396.5,0.4691
397.0,0.352
397.5,0.7157
398.0,1.002
398.5,1.036
399.0,1.121
399.5,1.117
400.0,1.16
401.0,1.181
402.0,1.245
403.0,1.182
404.0,1.163
405.0,1.163
406.0,1.143
407.0,1.124
408.0,1.168
409.0,1.25
410.0,1.092
411.0,1.182
412.0,1.269
413.0,1.237
414.0,1.252
415.0,1.255
416.0,1.276
417.0,1.244
418.0,1.221
419.0,1.236
420.0,1.231
421.0,1.287
422.0,1.223
423.0,1.194
424.0,1.263
425.0,1.26
426.0,1.227
427.0,1.203
428.0,1.172
429.0,1.109
430.0,0.9705
431.0,0.962
432.0,1.241
433.0,1.248
434.0,1.159
435.0,1.21
436.0,1.362
437.0,1.343
438.0,1.223
439.0,1.265
440.0,1.305
441.0,1.351
442.0,1.449
443.0,1.412
444.0,1.442
445.0,1.411
446.0,1.345
447.0,1.453
448.0,1.476
449.0,1.481
450.0,1.522
451.0,1.578
452.0,1.52
453.0,1.429
454.0,1.491
455.0,1.5
456.0,1.535
457.0,1.56
458.0,1.508
459.0,1.5
460.0,1.504
461.0,1.538
462.0,1.549
463.0,1.539
464.0,1.512
465.0,1.492
466.0,1.505
467.0,1.478
468.0,1.495
469.0,1.503
470.0,1.455
471.0,1.453
472.0,1.531
473.0,1.512
474.0,1.515
475.0,1.528
476.0,1.484
477.0,1.489
478.0,1.53
479.0,1.519
480.0,1.522
481.0,1.549
482.0,1.556
483.0,1.536
484.0,1.503
485.0,1.432
486.0,1.251
487.0,1.31
488.0,1.438
489.0,1.442
490.0,1.517
491.0,1.49
492.0,1.407
493.0,1.453
494.0,1.467
495.0,1.48
496.0,1.489
497.0,1.512
498.0,1.441
499.0,1.46
500.0,1.418
501.0,1.392
502.0,1.374
503.0,1.432
504.0,1.4
505.0,1.446
506.0,1.493
507.0,1.42
508.0,1.375
509.0,1.412
510.0,1.404
511.0,1.441
512.0,1.456
513.0,1.378
514.0,1.368
515.0,1.354
516.0,1.351
517.0,1.2
518.0,1.262
519.0,1.324
520.0,1.372
521.0,1.385
522.0,1.387
523.0,1.362
524.0,1.411
525.0,1.429
526.0,1.365
527.0,1.287
528.0,1.362
529.0,1.437
530.0,1.416
531.0,1.438
532.0,1.388
533.0,1.348
534.0,1.387
535.0,1.417
536.0,1.429
537.0,1.373
538.0,1.397
539.0,1.385
540.0,1.328
541.0,1.338
542.0,1.381
543.0,1.365
544.0,1.39
545.0,1.385
546.0,1.392
547.0,1.391
548.0,1.374
549.0,1.377
550.0,1.394
551.0,1.377
552.0,1.386
553.0,1.362
554.0,1.394
555.0,1.397
556.0,1.379
557.0,1.337
558.0,1.327
559.0,1.303
560.0,1.32
561.0,1.338
562.0,1.329
563.0,1.366
564.0,1.329
565.0,1.319
566.0,1.3
567.0,1.325
568.0,1.316
569.0,1.289
570.0,1.288
571.0,1.279
572.0,1.312
573.0,1.327
574.0,1.323
575.0,1.299
576.0,1.288
577.0,1.301
578.0,1.28
579.0,1.284
580.0,1.305
581.0,1.309
582.0,1.332
583.0,1.334
584.0,1.344
585.0,1.311
586.0,1.284
587.0,1.313
588.0,1.287
589.0,1.151
590.0,1.202
591.0,1.266
592.0,1.254
593.0,1.268
594.0,1.261
595.0,1.233
596.0,1.273
597.0,1.262
598.0,1.256
599.0,1.256
600.0,1.255
601.0,1.244
602.0,1.235
603.0,1.255
604.0,1.275
605.0,1.268
606.0,1.262
607.0,1.273
608.0,1.258
609.0,1.26
610.0,1.25
611.0,1.256
612.0,1.252
613.0,1.236
614.0,1.218
615.0,1.244
616.0,1.202
617.0,1.2
618.0,1.245
619.0,1.232
620.0,1.24
621.0,1.242
622.0,1.228
623.0,1.21
624.0,1.189
625.0,1.186
626.0,1.204
627.0,1.219
628.0,1.161
629.0,1.198
630.0,1.171
631.0,1.19
632.0,1.175
633.0,1.207
634.0,1.193
635.0,1.21
636.0,1.193
637.0,1.212
638.0,1.222
639.0,1.207
640.0,1.194
641.0,1.193
642.0,1.187
643.0,1.202
644.0,1.198
645.0,1.2
646.0,1.175
647.0,1.167
648.0,1.169
649.0,1.146
650.0,1.144
651.0,1.192
652.0,1.151
653.0,1.176
654.0,1.162
655.0,1.123
656.0,0.9925
657.0,1.019
658.0,1.14
659.0,1.147
660.0,1.151
661.0,1.159
662.0,1.163
663.0,1.139
664.0,1.15
665.0,1.15
666.0,1.15
667.0,1.148
668.0,1.148
669.0,1.165
670.0,1.159
671.0,1.159
672.0,1.149
673.0,1.166
674.0,1.161
675.0,1.15
676.0,1.158
677.0,1.146
678.0,1.149
679.0,1.13
680.0,1.139
681.0,1.131
682.0,1.13
683.0,1.128
684.0,1.122
685.0,1.131
686.0,1.125
687.0,0.8461
688.0,0.9428
689.0,0.9446
690.0,0.9749
691.0,1.008
692.0,1.031
693.0,1.024
694.0,1.016
695.0,1.047
696.0,1.048
697.0,1.097
698.0,1.08
699.0,1.064
700.0,1.052
701.0,1.044
702.0,1.047
703.0,1.049
704.0,1.077
705.0,1.079
706.0,1.075
707.0,1.075
708.0,1.078
709.0,1.076
710.0,1.077
711.0,1.075
712.0,1.07
713.0,1.061
714.0,1.064
715.0,1.034
716.0,1.036
717.0,0.9351
718.0,0.8661
719.0,0.7978
720.0,0.8379
721.0,0.9016
722.0,1.006
723.0,0.95
724.0,0.8709
725.0,0.8622
726.0,0.8992
727.0,0.9039
728.0,0.8615
729.0,0.8804
730.0,0.9305
731.0,0.895
732.0,0.9433
733.0,0.9849
734.0,1.005
735.0,0.9858
736.0,0.9843
737.0,0.9886
738.0,0.9953
739.0,0.9759
740.0,0.9986
741.0,0.9871
742.0,0.9865
743.0,1.011
744.0,1.007
745.0,1.007
746.0,1.011
747.0,1.013
748.0,1.011
749.0,0.9995
750.0,0.9989
751.0,0.9887
752.0,0.9929
753.0,0.9978
754.0,1.0
755.0,0.9944
756.0,0.9939
757.0,0.9953
758.0,0.9831
759.0,0.9681
760.0,0.2736
761.0,0.1734
762.0,0.5994
763.0,0.3689
764.0,0.4914
765.0,0.5999
766.0,0.6851
767.0,0.8156
768.0,0.9038
769.0,0.9145
770.0,0.9364
771.0,0.94
772.0,0.9407
773.0,0.9469
774.0,0.9421
775.0,0.9347
776.0,0.946
777.0,0.9335
778.0,0.9278
779.0,0.9286
780.0,0.9233
781.0,0.9242
782.0,0.9299
783.0,0.9136
784.0,0.9179
785.0,0.9114
786.0,0.9217
787.0,0.9094
788.0,0.8999
789.0,0.9001
790.0,0.8819
791.0,0.8841
792.0,0.8769
793.0,0.8633
794.0,0.8721
795.0,0.8883
796.0,0.8687
797.0,0.87
798.0,0.8881
799.0,0.8839
800.0,0.8704
801.0,0.8693
802.0,0.8667
803.0,0.861
804.0,0.8613
805.0,0.8565
806.0,0.8769
807.0,0.8672
808.0,0.8675
809.0,0.854
810.0,0.849
811.0,0.8536
812.0,0.8346
813.0,0.8208
814.0,0.7409
815.0,0.7359
816.0,0.6879
817.0,0.698
818.0,0.6761
819.0,0.7392
820.0,0.7028
821.0,0.799
822.0,0.7799
823.0,0.5671
824.0,0.7647
825.0,0.7864
826.0,0.7632
827.0,0.7982
828.0,0.697
829.0,0.7572
830.0,0.7495
831.0,0.7513
832.0,0.732
833.0,0.7681
834.0,0.7476
835.0,0.807
836.0,0.7813
837.0,0.8087
838.0,0.7873
839.0,0.7957
840.0,0.8121
841.0,0.8023
842.0,0.8014
843.0,0.7984
844.0,0.7887
845.0,0.8133
846.0,0.8094
847.0,0.7935
848.0,0.7897
849.0,0.7673
850.0,0.735
851.0,0.7794
852.0,0.7734
853.0,0.7435
854.0,0.6427
855.0,0.705
856.0,0.7709
857.0,0.7873
858.0,0.7819
859.0,0.782
860.0,0.7831
861.0,0.7789
862.0,0.791
863.0,0.8097
864.0,0.7691
865.0,0.7623
866.0,0.6854
867.0,0.7153
868.0,0.7783
869.0,0.7621
870.0,0.7838
871.0,0.7732
872.0,0.7704
873.0,0.7688
874.0,0.7596
875.0,0.7443
876.0,0.7521
877.0,0.7596
878.0,0.7681
879.0,0.7562
880.0,0.74
881.0,0.7294
882.0,0.7454
883.0,0.7472
884.0,0.744
885.0,0.7496
886.0,0.7164
887.0,0.7225
888.0,0.7342
889.0,0.7407
890.0,0.7366
891.0,0.7343
892.0,0.7157
893.0,0.6968
894.0,0.6787
895.0,0.6495
896.0,0.616
897.0,0.5409
898.0,0.5833
899.0,0.4584
900.0,0.5902
901.0,0.4796
902.0,0.5437
903.0,0.5551
904.0,0.6736
905.0,0.6542
906.0,0.6153
907.0,0.5171
908.0,0.5251
909.0,0.5603
910.0,0.5104
911.0,0.5353
912.0,0.5558
913.0,0.5187
914.0,0.5117
915.0,0.5527
916.0,0.4731
917.0,0.5832
918.0,0.4853
919.0,0.5902
920.0,0.589
921.0,0.6104
922.0,0.5564
923.0,0.5892
924.0,0.5707
925.0,0.5587
926.0,0.5646
927.0,0.6218
928.0,0.4856
929.0,0.4512
930.0,0.3678
931.0,0.3461
932.0,0.2625
933.0,0.2211
934.0,0.1375
935.0,0.2198
936.0,0.1473
937.0,0.151
938.0,0.1814
939.0,0.3354
940.0,0.3943
941.0,0.3102
942.0,0.3508
943.0,0.2408
944.0,0.2449
945.0,0.3177
946.0,0.1755
947.0,0.3225
948.0,0.2395
949.0,0.4179
950.0,0.1384
951.0,0.4091
952.0,0.2383
953.0,0.2956
954.0,0.3493
955.0,0.2975
956.0,0.2835
957.0,0.2406
958.0,0.3822
959.0,0.3176
960.0,0.3554
961.0,0.3884
962.0,0.369
963.0,0.4161
964.0,0.3845
965.0,0.4133
966.0,0.4158
967.0,0.4148
968.0,0.5252
969.0,0.5504
970.0,0.5101
971.0,0.5705
972.0,0.5482
973.0,0.4908
974.0,0.4681
975.0,0.4803
976.0,0.4631
977.0,0.5132
978.0,0.4934
979.0,0.5122
980.0,0.4846
981.0,0.5665
982.0,0.5465
983.0,0.5276
984.0,0.5784
985.0,0.5442
986.0,0.5855
987.0,0.5773
988.0,0.5763
989.0,0.5818
990.0,0.5725
991.0,0.5839
992.0,0.5869
993.0,0.5771
994.0,0.5864
995.0,0.5852
996.0,0.5831
997.0,0.5837
998.0,0.5811
999.0,0.5789
1000.0,0.5756
1001.0,0.5819
1002.0,0.5691
1003.0,0.5718
1004.0,0.5587
1005.0,0.537
1006.0,0.5586
1007.0,0.5701
1008.0,0.5676
1009.0,0.5652
1010.0,0.5632
1011.0,0.5672
1012.0,0.5629
1013.0,0.5656
1014.0,0.5616
1015.0,0.558
1016.0,0.5556
1017.0,0.5571
1018.0,0.5546
1019.0,0.544
1020.0,0.5519
1021.0,0.5509
1022.0,0.5471
1023.0,0.553
1024.0,0.547
1025.0,0.5522
1026.0,0.5501
1027.0,0.5488
1028.0,0.5477
1029.0,0.5414
1030.0,0.5446
1031.0,0.5426
1032.0,0.5409
1033.0,0.5328
1034.0,0.5328
1035.0,0.5344
1036.0,0.5373
1037.0,0.5286
1038.0,0.5309
1039.0,0.5307
1040.0,0.5286
1041.0,0.5308
1042.0,0.5271
1043.0,0.5255
1044.0,0.5274
1045.0,0.5203
1046.0,0.5147
1047.0,0.5194
1048.0,0.5223
1049.0,0.5205
1050.0,0.5183
1051.0,0.5176
1052.0,0.5157
1053.0,0.5117
1054.0,0.513
1055.0,0.5134
1056.0,0.5118
1057.0,0.5104
1058.0,0.498
1059.0,0.4988
1060.0,0.4981
1061.0,0.4976
1062.0,0.5004
1063.0,0.4956
1064.0,0.5014
1065.0,0.4983
1066.0,0.4881
1067.0,0.4945
1068.0,0.484
1069.0,0.4688
1070.0,0.4851
1071.0,0.4915
1072.0,0.4867
1073.0,0.4795
1074.0,0.4907
1075.0,0.4695
1076.0,0.4905
1077.0,0.4837
1078.0,0.4752
1079.0,0.4821
1080.0,0.4763
1081.0,0.4626
1082.0,0.4671
1083.0,0.4678
1084.0,0.4624
1085.0,0.477
1086.0,0.4409
1087.0,0.4508
1088.0,0.468
1089.0,0.4568
1090.0,0.4492
1091.0,0.4673
1092.0,0.4654
1093.0,0.4049
1094.0,0.427
1095.0,0.4201
1096.0,0.4054
1097.0,0.4544
1098.0,0.4001
1099.0,0.4157
1100.0,0.3913
1101.0,0.3947
1102.0,0.3797
1103.0,0.3781
1104.0,0.3784
1105.0,0.4072
1106.0,0.3294
1107.0,0.3902
1108.0,0.3417
1109.0,0.3402
1110.0,0.3881
1111.0,0.2781
1112.0,0.3367
1113.0,0.2301
1114.0,0.2551
1115.0,0.212
1116.0,0.1792
1117.0,0.07761
1118.0,0.191
1119.0,0.1039
1120.0,0.1308
1121.0,0.1677
1122.0,0.07856
1123.0,0.1179
1124.0,0.09963
1125.0,0.1278
1126.0,0.0526
1127.0,0.1434
1128.0,0.09445
1129.0,0.09875
1130.0,0.06919
1131.0,0.2521
1132.0,0.2015
1133.0,0.1382
1134.0,0.04244
1135.0,0.01562
1136.0,0.1191
1137.0,0.2504
1138.0,0.1791
1139.0,0.2478
1140.0,0.2144
1141.0,0.1701
1142.0,0.1915
1143.0,0.264
1144.0,0.1024
1145.0,0.133
1146.0,0.1435
1147.0,0.05913
1148.0,0.2286
1149.0,0.1887
1150.0,0.1099
1151.0,0.1778
1152.0,0.2118
1153.0,0.2011
1154.0,0.131
1155.0,0.2588
1156.0,0.2367
1157.0,0.2604
1158.0,0.2573
1159.0,0.2725
1160.0,0.2391
1161.0,0.2835
1162.0,0.2857
1163.0,0.3676
1164.0,0.3221
1165.0,0.31
1166.0,0.3037
1167.0,0.3273
1168.0,0.3322
1169.0,0.3376
1170.0,0.3617
1171.0,0.3536
1172.0,0.3571
1173.0,0.3609
1174.0,0.2726
1175.0,0.3505
1176.0,0.3784
1177.0,0.3676
1178.0,0.2874
1179.0,0.3811
1180.0,0.3479
1181.0,0.3582
1182.0,0.2594
1183.0,0.3509
1184.0,0.333
1185.0,0.3247
1186.0,0.3733
1187.0,0.3591
1188.0,0.2648
1189.0,0.3355
1190.0,0.3648
1191.0,0.3524
1192.0,0.3692
1193.0,0.356
1194.0,0.3654
1195.0,0.3498
1196.0,0.3397
1197.0,0.3632
1198.0,0.3358
1199.0,0.2954
1200.0,0.3519
1201.0,0.3427
1202.0,0.3389
1203.0,0.3361
1204.0,0.2996
1205.0,0.3438
1206.0,0.3742
1207.0,0.3389
1208.0,0.3307
1209.0,0.3367
1210.0,0.3485
1211.0,0.3357
1212.0,0.3357
1213.0,0.364
1214.0,0.3417
1215.0,0.3363
1216.0,0.3626
1217.0,0.3549
1218.0,0.3599
1219.0,0.3563
1220.0,0.36
1221.0,0.3625
1222.0,0.3543
1223.0,0.3517
1224.0,0.3509
1225.0,0.3603
1226.0,0.3615
1227.0,0.3383
1228.0,0.3623
1229.0,0.3615
1230.0,0.3563
1231.0,0.3634
1232.0,0.3613
1233.0,0.3527
1234.0,0.3623
1235.0,0.3605
1236.0,0.3627
1237.0,0.3592
1238.0,0.3615
1239.0,0.3569
1240.0,0.3581
1241.0,0.3573
1242.0,0.3557
1243.0,0.3527
1244.0,0.3555
1245.0,0.3569
1246.0,0.3548
1247.0,0.3537
1248.0,0.3539
1249.0,0.3546
1250.0,0.3527
1251.0,0.3487
1252.0,0.3481
1253.0,0.3466
1254.0,0.3441
1255.0,0.3481
1256.0,0.3407
1257.0,0.3393
1258.0,0.3437
1259.0,0.335
1260.0,0.3363
1261.0,0.3222
1262.0,0.3151
1263.0,0.3158
1264.0,0.2975
1265.0,0.3137
1266.0,0.3053
1267.0,0.3083
1268.0,0.2962
1269.0,0.2112
1270.0,0.3081
1271.0,0.3205
1272.0,0.321
1273.0,0.3182
1274.0,0.3185
1275.0,0.3222
1276.0,0.3244
1277.0,0.3255
1278.0,0.3297
1279.0,0.3269
1280.0,0.3227
1281.0,0.307
1282.0,0.2944
1283.0,0.3173
1284.0,0.3252
1285.0,0.3272
1286.0,0.3307
1287.0,0.3272
1288.0,0.3267
1289.0,0.3193
1290.0,0.3236
1291.0,0.3276
1292.0,0.3133
1293.0,0.3226
1294.0,0.3206
1295.0,0.3204
1296.0,0.3096
1297.0,0.2958
1298.0,0.3126
1299.0,0.3225
1300.0,0.2831
1301.0,0.2897
1302.0,0.3113
1303.0,0.2783
1304.0,0.247
1305.0,0.3058
1306.0,0.3063
1307.0,0.249
1308.0,0.2772
1309.0,0.3047
1310.0,0.2447
1311.0,0.2679
1312.0,0.2622
1313.0,0.2586
1314.0,0.235
1315.0,0.2341
1316.0,0.2653
1317.0,0.2524
1318.0,0.2703
1319.0,0.2229
1320.0,0.2135
1321.0,0.2446
1322.0,0.2487
1323.0,0.1969
1324.0,0.2186
1325.0,0.2619
1326.0,0.231
1327.0,0.2219
1328.0,0.1945
1329.0,0.1544
1330.0,0.1966
1331.0,0.1292
1332.0,0.1297
1333.0,0.1776
1334.0,0.1465
1335.0,0.1959
1336.0,0.1601
1337.0,0.1449
1338.0,0.1562
1339.0,0.1542
1340.0,0.1474
1341.0,0.1498
1342.0,0.157
1343.0,0.1195
1344.0,0.07142
1345.0,0.1011
1346.0,0.0597
1347.0,0.06226
1348.0,0.006328
1349.0,0.0198
1350.0,0.01868
1351.0,0.006737
1352.0,0.002684
1353.0,0.0002243
1354.0,0.0005762
1355.0,1.204e-05
1356.0,0.0001146
1357.0,0.0001712
1358.0,1.373e-05
1359.0,3.418e-06
1360.0,8.015e-06
1361.0,4.021e-08
1362.0,2.229e-10
1363.0,1.248e-05
1364.0,5.709e-06
1365.0,1.68e-10
1366.0,4.514e-05
1367.0,1.742e-05
1368.0,6.132e-12
1369.0,2.261e-06
1370.0,1.48e-06
1371.0,1.249e-07
1372.0,9.702e-06
1373.0,0.0001189
1374.0,0.0003981
1375.0,0.0007061
1376.0,0.0005109
1377.0,0.0002543
1378.0,0.002055
1379.0,0.0001098
1380.0,0.0001886
1381.0,6.32e-06
1382.0,9.457e-06
1383.0,1.973e-07
1384.0,2.837e-06
1385.0,6.607e-06
1386.0,1.016e-05
1387.0,0.0004813
1388.0,1.066e-05
1389.0,0.001173
1390.0,0.0009988
1391.0,0.0007306
1392.0,5.58e-05
1393.0,0.0002437
1394.0,0.0002045
1395.0,2.367e-06
1396.0,4.783e-08
1397.0,0.0001115
1398.0,0.002356
1399.0,0.001505
1400.0,2.998e-08
1401.0,7.462e-08
1402.0,0.002782
1403.0,0.003747
1404.0,0.001184
1405.0,1.477e-06
1406.0,0.003446
1407.0,0.0002967
1408.0,0.002775
1409.0,0.001181
1410.0,0.0008456
1411.0,0.003257
1412.0,0.003926
1413.0,0.0278
1414.0,0.0006519
1415.0,0.0003535
1416.0,0.0381
1417.0,0.01447
1418.0,0.01647
1419.0,0.002726
1420.0,0.01022
1421.0,0.01138
1422.0,0.04873
1423.0,0.01032
1424.0,0.01862
1425.0,0.0282
1426.0,0.0296
1427.0,0.04868
1428.0,0.006125
1429.0,0.03882
1430.0,0.06028
1431.0,0.06473
1432.0,0.004921
1433.0,0.04335
1434.0,0.02317
1435.0,0.0269
1436.0,0.0458
1437.0,0.03523
1438.0,0.01662
1439.0,0.05955
1440.0,0.04506
1441.0,0.03713
1442.0,0.0404
1443.0,0.04651
1444.0,0.06283
1445.0,0.05242
1446.0,0.02462
1447.0,0.03884
1448.0,0.1069
1449.0,0.09618
1450.0,0.02874
1451.0,0.01248
1452.0,0.06101
1453.0,0.07807
1454.0,0.1227
1455.0,0.06213
1456.0,0.08525
1457.0,0.1075
1458.0,0.1204
1459.0,0.1433
1460.0,0.07818
1461.0,0.08432
1462.0,0.1182
1463.0,0.04215
