interpolation:linear
wavelength,value
280.0,4.153e-23
280.5,1.401e-21
281.0,7.601e-21
281.5,2.478e-19
282.0,4.851e-19
282.5,1.114e-18
283.0,3.42e-18
283.5,5.547e-18
284.0,9.063e-17
284.5,2.661e-16
285.0,7.97e-16
285.5,3.116e-15
286.0,1.206e-14
286.5,5.138e-14
287.0,1.444e-13
287.5,5.475e-13
288.0,1.675e-12
288.5,4.755e-12
289.0,1.225e-11
289.5,3.628e-11
290.0,1.001e-10
290.5,2.041e-10
291.0,4.391e-10
291.5,1.266e-09
292.0,2.597e-09
292.5,3.61e-09
293.0,7.657e-09
293.5,1.839e-08
294.0,2.866e-08
294.5,3.448e-08
295.0,5.792e-08
295.5,9.762e-08
296.0,1.823e-07
296.5,2.463e-07
297.0,3.233e-07
297.5,8.264e-07
298.0,1.245e-06
298.5,1.207e-06
299.0,2.563e-06
299.5,3.964e-06
300.0,4.179e-06
300.5,5.784e-06
301.0,9.691e-06
301.5,1.435e-05
302.0,1.18e-05
302.5,2.247e-05
303.0,3.869e-05
303.5,4.788e-05
304.0,4.549e-05
304.5,7.031e-05
305.0,0.000113
305.5,0.0001349
306.0,0.0001328
306.5,0.0001703
307.0,0.000271
307.5,0.0003877
308.0,0.0004143
308.5,0.0005083
309.0,0.0005364
309.5,0.0007551
310.0,0.0008352
310.5,0.001419
311.0,0.001927
311.5,0.001925
312.0,0.002288
312.5,0.003123
313.0,0.003598
313.5,0.003301
314.0,0.004742
314.5,0.005064
315.0,0.006876
315.5,0.005251
316.0,0.005335
316.5,0.008736
317.0,0.01082
317.5,0.01083
318.0,0.009245
318.5,0.01365
319.0,0.01768
319.5,0.0125
320.0,0.01478
320.5,0.0221
321.0,0.02312
321.5,0.02252
322.0,0.02017
322.5,0.0177
323.0,0.01972
323.5,0.02911
324.0,0.0347
324.5,0.03332
325.0,0.02528
325.5,0.03563
326.0,0.04856
326.5,0.0521
327.0,0.0506
327.5,0.04729
328.0,0.0383
328.5,0.04509
329.0,0.05891
329.5,0.06865
330.0,0.06777
330.5,0.05069
331.0,0.05045
331.5,0.05391
332.0,0.06259
332.5,0.06394
333.0,0.06256
333.5,0.05369
334.0,0.05451
334.5,0.0668
335.0,0.06497
335.5,0.07725
336.0,0.05345
336.5,0.06044
337.0,0.04834
337.5,0.05957
338.0,0.0611
338.5,0.07225
339.0,0.07176
339.5,0.06889
340.0,0.07912
340.5,0.07167
341.0,0.0713
341.5,0.06588
342.0,0.07888
342.5,0.07394
343.0,0.08101
343.5,0.07608
344.0,0.05511
344.5,0.05655
345.0,0.07539
345.5,0.07724
346.0,0.0658
346.5,0.07463
347.0,0.07986
347.5,0.06452
348.0,0.07387
348.5,0.07404
349.0,0.06879
349.5,0.0681
350.0,0.0843
350.5,0.08894
351.0,0.0793
351.5,0.07669
352.0,0.08268
352.5,0.06471
353.0,0.08169
353.5,0.08748
354.0,0.09092
354.5,0.09222
355.0,0.09187
355.5,0.08309
356.0,0.08703
356.5,0.07434
357.0,0.06142
357.5,0.07524
358.0,0.05967
358.5,0.05102
359.0,0.07135
359.5,0.0908
360.0,0.09634
360.5,0.07708
361.0,0.07036
361.5,0.08112
362.0,0.07024
362.5,0.09731
363.0,0.08749
363.5,0.08065
364.0,0.09871
364.5,0.08441
365.0,0.08601
365.5,0.108
366.0,0.1146
366.5,0.1077
367.0,0.105
367.5,0.109
368.0,0.09547
368.5,0.09639
369.0,0.1042
369.5,0.1111
370.0,0.1186
370.5,0.09209
371.0,0.09848
371.5,0.1233
372.0,0.08187
372.5,0.09824
373.0,0.1
373.5,0.06512
374.0,0.0947
374.5,0.07849
375.0,0.07635
375.5,0.1141
376.0,0.09461
376.5,0.09809
377.0,0.104
377.5,0.1217
378.0,0.132
378.5,0.1248
379.0,0.1031
379.5,0.09417
380.0,0.09797
380.5,0.1188
381.0,0.1192
381.5,0.09458
382.0,0.08409
382.5,0.07178
383.0,0.06653
383.5,0.06414
384.0,0.07081
384.5,0.1043
385.0,0.1035
385.5,0.09647
386.0,0.0827
386.5,0.1088
387.0,0.09043
387.5,0.1017
388.0,0.09394
388.5,0.09295
389.0,0.1004
389.5,0.1217
390.0,0.1223
390.5,0.1126
391.0,0.1327
391.5,0.1355
392.0,0.1142
392.5,0.1024
393.0,0.05702
393.5,0.04149
394.0,0.08451
394.5,0.1076
395.0,0.1313
395.5,0.1335
396.0,0.1159
396.5,0.06783
397.0,0.05096
397.5,0.1037
398.0,0.1453
398.5,0.1503
399.0,0.1631
399.5,0.1627
400.0,0.169
401.0,0.1689
402.0,0.1787
403.0,0.1701
404.0,0.1678
405.0,0.168
406.0,0.1657
407.0,0.1634
408.0,0.1699
409.0,0.1822
410.0,0.1595
411.0,0.1731
412.0,0.1865
413.0,0.1821
414.0,0.1847
415.0,0.1856
416.0,0.1893
417.0,0.1849
418.0,0.1818
419.0,0.1846
420.0,0.1841
421.0,0.1929
422.0,0.1837
423.0,0.1797
424.0,0.1902
425.0,0.1902
426.0,0.1859
427.0,0.1827
428.0,0.1783
429.0,0.1694
430.0,0.1485
431.0,0.1473
432.0,0.1906
433.0,0.192
434.0,0.1785
435.0,0.1866
436.0,0.2108
437.0,0.2086
438.0,0.1903
439.0,0.1965
440.0,0.2031
441.0,0.2109
442.0,0.2264
443.0,0.2204
444.0,0.2258
445.0,0.2211
446.0,0.2118
447.0,0.2297
448.0,0.2331
449.0,0.2348
450.0,0.2418
451.0,0.2511
452.0,0.2424
453.0,0.2284
454.0,0.2391
455.0,0.2406
456.0,0.2466
457.0,0.2508
458.0,0.2419
459.0,0.2408
460.0,0.2413
461.0,0.247
462.0,0.2495
463.0,0.248
464.0,0.2449
465.0,0.2427
466.0,0.2457
467.0,0.2411
468.0,0.244
469.0,0.2453
470.0,0.2374
471.0,0.2374
472.0,0.2502
473.0,0.2471
474.0,0.247
475.0,0.2485
476.0,0.2402
477.0,0.2402
478.0,0.247
479.0,0.2459
480.0,0.2468
481.0,0.252
482.0,0.2542
483.0,0.252
484.0,0.2475
485.0,0.2365
486.0,0.2075
487.0,0.218
488.0,0.2393
489.0,0.2398
490.0,0.2528
491.0,0.2488
492.0,0.2351
493.0,0.243
494.0,0.2456
495.0,0.248
496.0,0.2496
497.0,0.2534
498.0,0.2414
499.0,0.2441
500.0,0.2365
501.0,0.2315
502.0,0.227
503.0,0.2352
504.0,0.226
505.0,0.2367
506.0,0.2444
507.0,0.2328
508.0,0.2266
509.0,0.2339
510.0,0.2334
511.0,0.2405
512.0,0.2435
513.0,0.2307
514.0,0.2294
515.0,0.2271
516.0,0.2264
517.0,0.2012
518.0,0.2115
519.0,0.2217
520.0,0.2296
521.0,0.2317
522.0,0.2316
523.0,0.2272
524.0,0.2345
525.0,0.2363
526.0,0.2254
527.0,0.2117
528.0,0.2233
529.0,0.2348
530.0,0.231
531.0,0.2341
532.0,0.2259
533.0,0.2192
534.0,0.226
535.0,0.2314
536.0,0.2339
537.0,0.2251
538.0,0.2292
539.0,0.2272
540.0,0.2176
541.0,0.218
542.0,0.2242
543.0,0.2226
544.0,0.2255
545.0,0.2251
546.0,0.2253
547.0,0.2259
548.0,0.2236
549.0,0.2245
550.0,0.2272
551.0,0.2246
552.0,0.2262
553.0,0.222
554.0,0.2272
555.0,0.2274
556.0,0.2243
557.0,0.2169
558.0,0.2147
559.0,0.2101
560.0,0.2123
561.0,0.2145
562.0,0.2122
563.0,0.2172
564.0,0.2107
565.0,0.2083
566.0,0.2047
567.0,0.2078
568.0,0.2041
569.0,0.196
570.0,0.1963
571.0,0.1958
572.0,0.1983
573.0,0.1999
574.0,0.1987
575.0,0.1942
576.0,0.1925
577.0,0.1949
578.0,0.193
579.0,0.1954
580.0,0.2017
581.0,0.2047
582.0,0.2103
583.0,0.2123
584.0,0.2151
585.0,0.2104
586.0,0.2062
587.0,0.2097
588.0,0.2004
589.0,0.1697
590.0,0.1779
591.0,0.1932
592.0,0.1879
593.0,0.1943
594.0,0.1916
595.0,0.1834
596.0,0.1975
597.0,0.1934
598.0,0.195
599.0,0.196
600.0,0.198
601.0,0.1977
602.0,0.1966
603.0,0.2006
604.0,0.2043
605.0,0.2037
606.0,0.2036
607.0,0.2064
608.0,0.2049
609.0,0.206
610.0,0.2052
611.0,0.2069
612.0,0.2068
613.0,0.2047
614.0,0.2026
615.0,0.2077
616.0,0.2014
617.0,0.2014
618.0,0.2096
619.0,0.2077
620.0,0.2091
621.0,0.2088
622.0,0.2061
623.0,0.2028
624.0,0.1997
625.0,0.199
626.0,0.2016
627.0,0.2021
628.0,0.1686
629.0,0.1901
630.0,0.1849
631.0,0.196
632.0,0.1951
633.0,0.2038
634.0,0.2042
635.0,0.2086
636.0,0.2072
637.0,0.2116
638.0,0.2154
639.0,0.2139
640.0,0.2129
641.0,0.2135
642.0,0.2135
643.0,0.2165
644.0,0.2168
645.0,0.2166
646.0,0.2091
647.0,0.2006
648.0,0.2018
649.0,0.1965
650.0,0.2053
651.0,0.2154
652.0,0.1996
653.0,0.2132
654.0,0.2113
655.0,0.1999
656.0,0.1796
657.0,0.1851
658.0,0.2099
659.0,0.2124
660.0,0.2141
661.0,0.2163
662.0,0.2157
663.0,0.2118
664.0,0.2161
665.0,0.2178
666.0,0.2186
667.0,0.2191
668.0,0.2201
669.0,0.2241
670.0,0.2235
671.0,0.2239
672.0,0.2223
673.0,0.2261
674.0,0.2256
675.0,0.224
676.0,0.2259
677.0,0.224
678.0,0.2249
679.0,0.2216
680.0,0.2236
681.0,0.2222
682.0,0.222
683.0,0.2217
684.0,0.2205
685.0,0.2228
686.0,0.2211
687.0,0.07105
688.0,0.1103
689.0,0.1117
690.0,0.1288
691.0,0.1504
692.0,0.1692
693.0,0.1677
694.0,0.1699
695.0,0.1878
696.0,0.189
697.0,0.2125
698.0,0.2089
699.0,0.1954
700.0,0.1925
701.0,0.1866
702.0,0.1913
703.0,0.1933
704.0,0.2046
705.0,0.2046
706.0,0.2063
707.0,0.2074
708.0,0.2075
709.0,0.2117
710.0,0.2095
711.0,0.2106
712.0,0.212
713.0,0.2079
714.0,0.2094
715.0,0.199
716.0,0.1983
717.0,0.1422
718.0,0.1293
719.0,0.1162
720.0,0.1184
721.0,0.1463
722.0,0.1852
723.0,0.164
724.0,0.1368
725.0,0.1318
726.0,0.1386
727.0,0.1478
728.0,0.1304
729.0,0.145
730.0,0.15
731.0,0.1422
732.0,0.1633
733.0,0.1821
734.0,0.1901
735.0,0.1842
736.0,0.1829
737.0,0.1841
738.0,0.1958
739.0,0.1925
740.0,0.2
741.0,0.1996
742.0,0.2015
743.0,0.2072
744.0,0.2077
745.0,0.2087
746.0,0.2096
747.0,0.2104
748.0,0.21
749.0,0.2077
750.0,0.2077
751.0,0.2057
752.0,0.2067
753.0,0.2079
754.0,0.2083
755.0,0.2071
756.0,0.2072
757.0,0.2074
758.0,0.2046
759.0,0.194
760.0,0.003258
761.0,0.001442
762.0,0.03152
763.0,0.006496
764.0,0.0153
765.0,0.03133
766.0,0.05806
767.0,0.1048
768.0,0.157
769.0,0.17
770.0,0.1874
771.0,0.1943
772.0,0.1965
773.0,0.1983
774.0,0.1977
775.0,0.1965
776.0,0.1991
777.0,0.1965
778.0,0.1953
779.0,0.1954
780.0,0.1945
781.0,0.1947
782.0,0.1961
783.0,0.1928
784.0,0.194
785.0,0.1921
786.0,0.1938
787.0,0.1856
788.0,0.1813
789.0,0.1814
790.0,0.1709
791.0,0.1782
792.0,0.1779
793.0,0.1745
794.0,0.1832
795.0,0.1846
796.0,0.1705
797.0,0.1697
798.0,0.1833
799.0,0.1807
800.0,0.1756
801.0,0.1729
802.0,0.172
803.0,0.1694
804.0,0.1708
805.0,0.1728
806.0,0.1822
807.0,0.1792
808.0,0.1795
809.0,0.1727
810.0,0.1695
811.0,0.1668
812.0,0.1546
813.0,0.1503
814.0,0.1194
815.0,0.1202
816.0,0.1094
817.0,0.1115
818.0,0.1045
819.0,0.1273
820.0,0.1168
821.0,0.1542
822.0,0.1468
823.0,0.07515
824.0,0.1354
825.0,0.1522
826.0,0.1399
827.0,0.154
828.0,0.113
829.0,0.1405
830.0,0.1378
831.0,0.1379
832.0,0.1305
833.0,0.1464
834.0,0.1368
835.0,0.1639
836.0,0.1465
837.0,0.164
838.0,0.1542
839.0,0.1611
840.0,0.1659
841.0,0.1614
842.0,0.1651
843.0,0.1687
844.0,0.1645
845.0,0.1724
846.0,0.1724
847.0,0.1702
848.0,0.1676
849.0,0.1628
850.0,0.1561
851.0,0.1636
852.0,0.1633
853.0,0.1585
854.0,0.1357
855.0,0.1507
856.0,0.164
857.0,0.1688
858.0,0.167
859.0,0.1679
860.0,0.1687
861.0,0.1677
862.0,0.1706
863.0,0.1746
864.0,0.166
865.0,0.1647
866.0,0.1481
867.0,0.1546
868.0,0.1683
869.0,0.1648
870.0,0.1696
871.0,0.1673
872.0,0.1668
873.0,0.1665
874.0,0.1645
875.0,0.1611
876.0,0.1627
877.0,0.1644
878.0,0.1659
879.0,0.1635
880.0,0.16
881.0,0.1568
882.0,0.1598
883.0,0.1612
884.0,0.1601
885.0,0.1613
886.0,0.1511
887.0,0.1548
888.0,0.156
889.0,0.1599
890.0,0.1557
891.0,0.1569
892.0,0.1488
893.0,0.1411
894.0,0.1287
895.0,0.1129
896.0,0.1043
897.0,0.08084
898.0,0.09174
899.0,0.06065
900.0,0.09967
901.0,0.06368
902.0,0.08582
903.0,0.08232
904.0,0.1268
905.0,0.12
906.0,0.1094
907.0,0.07348
908.0,0.07877
909.0,0.08989
910.0,0.06989
911.0,0.08358
912.0,0.08617
913.0,0.07043
914.0,0.07212
915.0,0.07658
916.0,0.06395
917.0,0.09063
918.0,0.06447
919.0,0.09593
920.0,0.1065
921.0,0.1091
922.0,0.09025
923.0,0.1066
924.0,0.08933
925.0,0.08802
926.0,0.08718
927.0,0.1045
928.0,0.05622
929.0,0.04664
930.0,0.02876
931.0,0.02644
932.0,0.01334
933.0,0.008985
934.0,0.002197
935.0,0.01041
936.0,0.004332
937.0,0.004424
938.0,0.006071
939.0,0.02539
940.0,0.03577
941.0,0.02098
942.0,0.02671
943.0,0.01355
944.0,0.01853
945.0,0.02299
946.0,0.006808
947.0,0.02162
948.0,0.01551
949.0,0.03525
950.0,0.003795
951.0,0.03457
952.0,0.01248
953.0,0.02002
954.0,0.02943
955.0,0.02099
956.0,0.028
957.0,0.01244
958.0,0.04392
959.0,0.02721
960.0,0.03076
961.0,0.04068
962.0,0.03854
963.0,0.05045
964.0,0.04466
965.0,0.04916
966.0,0.04957
967.0,0.04811
968.0,0.09222
969.0,0.09076
970.0,0.08177
971.0,0.1063
972.0,0.09822
973.0,0.07303
974.0,0.06915
975.0,0.07464
976.0,0.06372
977.0,0.08882
978.0,0.07749
979.0,0.08411
980.0,0.0779
981.0,0.106
982.0,0.0968
983.0,0.09049
984.0,0.1159
985.0,0.09571
986.0,0.1224
987.0,0.1164
988.0,0.1168
989.0,0.1251
990.0,0.1155
991.0,0.125
992.0,0.1262
993.0,0.1194
994.0,0.1268
995.0,0.1274
996.0,0.126
997.0,0.1266
998.0,0.1257
999.0,0.1255
1000.0,0.1233
1001.0,0.1263
1002.0,0.1174
1003.0,0.1238
1004.0,0.1193
1005.0,0.1169
1006.0,0.1206
1007.0,0.1235
1008.0,0.122
1009.0,0.1203
1010.0,0.1192
1011.0,0.123
1012.0,0.121
1013.0,0.1231
1014.0,0.1222
1015.0,0.1212
1016.0,0.1206
1017.0,0.1206
1018.0,0.1209
1019.0,0.1162
1020.0,0.1199
1021.0,0.1201
1022.0,0.1184
1023.0,0.1196
1024.0,0.116
1025.0,0.1202
1026.0,0.1191
1027.0,0.119
1028.0,0.1186
1029.0,0.1169
1030.0,0.1185
1031.0,0.1177
1032.0,0.1176
1033.0,0.1158
1034.0,0.1159
1035.0,0.1162
1036.0,0.1166
1037.0,0.1148
1038.0,0.1152
1039.0,0.115
1040.0,0.1145
1041.0,0.1147
1042.0,0.1139
1043.0,0.1134
1044.0,0.1137
1045.0,0.112
1046.0,0.1106
1047.0,0.1115
1048.0,0.1119
1049.0,0.1113
1050.0,0.1106
1051.0,0.1102
1052.0,0.1096
1053.0,0.1084
1054.0,0.1084
1055.0,0.1081
1056.0,0.1073
1057.0,0.1067
1058.0,0.1038
1059.0,0.1035
1060.0,0.1032
1061.0,0.1029
1062.0,0.1031
1063.0,0.1018
1064.0,0.1031
1065.0,0.1016
1066.0,0.1002
1067.0,0.1013
1068.0,0.0985
1069.0,0.09597
1070.0,0.09878
1071.0,0.102
1072.0,0.09956
1073.0,0.09836
1074.0,0.103
1075.0,0.09374
1076.0,0.1026
1077.0,0.09857
1078.0,0.09534
1079.0,0.102
1080.0,0.0968
1081.0,0.0915
1082.0,0.09675
1083.0,0.09829
1084.0,0.09033
1085.0,0.09738
1086.0,0.08319
1087.0,0.08958
1088.0,0.09755
1089.0,0.08954
1090.0,0.08588
1091.0,0.09598
1092.0,0.09635
1093.0,0.07077
1094.0,0.08675
1095.0,0.07353
1096.0,0.06777
1097.0,0.09419
1098.0,0.06482
1099.0,0.06889
1100.0,0.06043
1101.0,0.06298
1102.0,0.05714
1103.0,0.05448
1104.0,0.05504
1105.0,0.06613
1106.0,0.03642
1107.0,0.06054
1108.0,0.04267
1109.0,0.04331
1110.0,0.05713
1111.0,0.02721
1112.0,0.0434
1113.0,0.01801
1114.0,0.0201
1115.0,0.01562
1116.0,0.008767
1117.0,0.001244
1118.0,0.01001
1119.0,0.002731
1120.0,0.003068
1121.0,0.004857
1122.0,0.0008941
1123.0,0.002801
1124.0,0.002341
1125.0,0.003576
1126.0,0.0003336
1127.0,0.00412
1128.0,0.001207
1129.0,0.001341
1130.0,0.0008716
1131.0,0.0134
1132.0,0.009156
1133.0,0.003189
1134.0,0.0002528
1135.0,0.0001236
1136.0,0.002
1137.0,0.01214
1138.0,0.007654
1139.0,0.01992
1140.0,0.01317
1141.0,0.007423
1142.0,0.00977
1143.0,0.01807
1144.0,0.003191
1145.0,0.002972
1146.0,0.003193
1147.0,0.0003559
1148.0,0.0146
1149.0,0.009511
1150.0,0.004273
1151.0,0.007661
1152.0,0.01191
1153.0,0.01388
1154.0,0.003398
1155.0,0.02079
1156.0,0.01679
1157.0,0.02412
1158.0,0.02373
1159.0,0.02706
1160.0,0.02262
1161.0,0.03417
1162.0,0.03345
1163.0,0.05907
1164.0,0.04582
1165.0,0.03868
1166.0,0.04259
1167.0,0.04862
1168.0,0.04863
1169.0,0.05071
1170.0,0.05964
1171.0,0.05813
1172.0,0.06267
1173.0,0.05957
1174.0,0.03342
1175.0,0.06165
1176.0,0.07471
1177.0,0.06688
1178.0,0.04274
1179.0,0.07507
1180.0,0.05961
1181.0,0.06169
1182.0,0.03356
1183.0,0.06212
1184.0,0.05492
1185.0,0.05012
1186.0,0.0694
1187.0,0.06268
1188.0,0.03219
1189.0,0.05799
1190.0,0.06889
1191.0,0.05842
1192.0,0.07058
1193.0,0.06513
1194.0,0.06882
1195.0,0.06035
1196.0,0.05575
1197.0,0.07036
1198.0,0.06305
1199.0,0.0443
1200.0,0.06456
1201.0,0.05845
1202.0,0.06185
1203.0,0.05858
1204.0,0.04796
1205.0,0.06555
1206.0,0.0769
1207.0,0.06008
1208.0,0.06202
1209.0,0.06337
1210.0,0.0684
1211.0,0.06214
1212.0,0.05534
1213.0,0.07126
1214.0,0.05859
1215.0,0.05727
1216.0,0.07202
1217.0,0.06834
1218.0,0.07123
1219.0,0.069
1220.0,0.0715
1221.0,0.07389
1222.0,0.07099
1223.0,0.06942
1224.0,0.06657
1225.0,0.07268
1226.0,0.075
1227.0,0.06352
1228.0,0.07625
1229.0,0.07506
1230.0,0.07274
1231.0,0.07808
1232.0,0.07748
1233.0,0.0704
1234.0,0.07918
1235.0,0.07785
1236.0,0.07908
1237.0,0.07634
1238.0,0.07883
1239.0,0.07778
1240.0,0.07835
1241.0,0.07662
1242.0,0.07766
1243.0,0.07711
1244.0,0.07721
1245.0,0.0778
1246.0,0.07741
1247.0,0.07671
1248.0,0.07595
1249.0,0.07682
1250.0,0.07592
1251.0,0.07406
1252.0,0.07519
1253.0,0.07257
1254.0,0.0704
1255.0,0.0746
1256.0,0.06884
1257.0,0.06773
1258.0,0.07188
1259.0,0.06381
1260.0,0.0648
1261.0,0.05487
1262.0,0.05015
1263.0,0.0501
1264.0,0.03989
1265.0,0.04988
1266.0,0.04411
1267.0,0.04757
1268.0,0.04095
1269.0,0.009255
1270.0,0.04632
1271.0,0.05566
1272.0,0.0563
1273.0,0.055
1274.0,0.05618
1275.0,0.05807
1276.0,0.05992
1277.0,0.06214
1278.0,0.06575
1279.0,0.06532
1280.0,0.06444
1281.0,0.06276
1282.0,0.06253
1283.0,0.0669
1284.0,0.06817
1285.0,0.06901
1286.0,0.07103
1287.0,0.06788
1288.0,0.06863
1289.0,0.0624
1290.0,0.06812
1291.0,0.06985
1292.0,0.05878
1293.0,0.06698
1294.0,0.06626
1295.0,0.06326
1296.0,0.05662
1297.0,0.05098
1298.0,0.06074
1299.0,0.06757
1300.0,0.04779
1301.0,0.05045
1302.0,0.06102
1303.0,0.04774
1304.0,0.03315
1305.0,0.05918
1306.0,0.05782
1307.0,0.03645
1308.0,0.04911
1309.0,0.05557
1310.0,0.03476
1311.0,0.04516
1312.0,0.04339
1313.0,0.03975
1314.0,0.03248
1315.0,0.03078
1316.0,0.04292
1317.0,0.03919
1318.0,0.04616
1319.0,0.02709
1320.0,0.02747
1321.0,0.03552
1322.0,0.03401
1323.0,0.01892
1324.0,0.02706
1325.0,0.04057
1326.0,0.0307
1327.0,0.02788
1328.0,0.0214
1329.0,0.01102
1330.0,0.0174
1331.0,0.006108
1332.0,0.007102
1333.0,0.01072
1334.0,0.01256
1335.0,0.01782
1336.0,0.01122
1337.0,0.009793
1338.0,0.01019
1339.0,0.01047
1340.0,0.01152
1341.0,0.008007
1342.0,0.008959
1343.0,0.002877
1344.0,0.001968
1345.0,0.002368
1346.0,0.0003792
1347.0,0.0002981
1348.0,5.526e-06
1349.0,2.21e-05
1350.0,2.436e-05
1351.0,3.803e-06
1352.0,9.527e-07
1353.0,4.843e-08
1354.0,1.668e-07
1355.0,1.34e-09
1356.0,2.346e-08
1357.0,3.564e-08
1358.0,1.573e-09
1359.0,1.982e-10
1360.0,7.162e-10
1361.0,8.012e-13
1362.0,2.191e-15
1363.0,9.63e-10
1364.0,3.976e-10
1365.0,7.652e-16
1366.0,4.173e-09
1367.0,1.704e-09
1368.0,5.908e-18
1369.0,1.465e-10
1370.0,7.215e-11
1371.0,4.09e-12
1372.0,9.24e-10
1373.0,1.862e-08
1374.0,8.635e-08
1375.0,1.566e-07
1376.0,1.408e-07
1377.0,6.428e-08
1378.0,6.278e-07
1379.0,2.689e-08
1380.0,3.853e-08
1381.0,1.004e-09
1382.0,8.098e-10
1383.0,1.211e-11
1384.0,1.587e-10
1385.0,7.591e-10
1386.0,7.14e-10
1387.0,8.635e-08
1388.0,1.699e-09
1389.0,2.917e-07
1390.0,2.503e-07
1391.0,1.665e-07
1392.0,1.08e-08
1393.0,5.725e-08
1394.0,2.945e-08
1395.0,2.158e-10
1396.0,1.043e-12
1397.0,2.252e-08
1398.0,6.657e-07
1399.0,4.212e-07
1400.0,4.46e-13
1401.0,1.851e-12
1402.0,1.267e-06
1403.0,1.506e-06
1404.0,4.499e-07
1405.0,1.022e-10
1406.0,1.15e-06
1407.0,1.077e-07
1408.0,9.368e-07
1409.0,3.111e-07
