interpolation:linear
wavelength,value
280.0,1.9540000000000003e-20
280.5,5.709e-19
281.0,2.945e-18
281.5,4.142e-19
282.0,1.624e-18
282.5,4.493e-18
283.0,1.482e-17
283.5,2.438e-17
284.0,3.875e-16
284.5,1.1e-15
285.0,1.95e-15
285.5,1.095e-14
286.0,4.537e-14
286.5,2.092e-13
287.0,6.044e-13
287.5,2.322e-12
288.0,6.628e-12
288.5,2.531e-11
289.0,8.16e-11
289.5,2.929e-10
290.0,9.224e-10
290.5,2.078e-09
291.0,4.986e-09
291.5,1.634e-08
292.0,4.444e-08
292.5,7.048e-08
293.0,1.771e-07
293.5,5.393e-07
294.0,9.981e-07
294.5,1.327e-06
295.0,2.649e-06
295.5,6.838e-06
296.0,1.331e-05
296.5,1.878e-05
297.0,2.56e-05
297.5,6.93e-05
298.0,0.0001101
298.5,0.0001114
299.0,0.000247
299.5,0.0004136
300.0,0.0004577
300.5,0.0006672
301.0,0.001221
301.5,0.00197
302.0,0.0017
302.5,0.003248
303.0,0.005662
303.5,0.006992
304.0,0.006476
304.5,0.009304
305.0,0.01338
305.5,0.01481
306.0,0.01415
306.5,0.01725
307.0,0.0244
307.5,0.03101
308.0,0.03252
308.5,0.03756
309.0,0.03645
309.5,0.04044
310.0,0.04005
310.5,0.0644
311.0,0.07988
311.5,0.07671
312.0,0.07471
312.5,0.08933
313.0,0.09599
313.5,0.09402
314.0,0.1151
314.5,0.09918
315.0,0.1297
315.5,0.11
316.0,0.09385
316.5,0.1321
317.0,0.1641
317.5,0.1717
318.0,0.1321
318.5,0.1598
319.0,0.1871
319.5,0.1558
320.0,0.1889
320.5,0.2301
321.0,0.1999
321.5,0.1912
322.0,0.2092
322.5,0.1817
323.0,0.1779
323.5,0.2152
324.0,0.2505
324.5,0.256
325.0,0.2232
325.5,0.2831
326.0,0.3447
326.5,0.342
327.0,0.342
327.5,0.3318
328.0,0.299
328.5,0.3097
329.0,0.3664
329.5,0.4144
330.0,0.4192
330.5,0.3386
331.0,0.3461
331.5,0.3493
332.0,0.3737
332.5,0.368
333.0,0.3678
333.5,0.3354
334.0,0.344
334.5,0.3936
335.0,0.3681
335.5,0.4299
336.0,0.2975
336.5,0.3492
337.0,0.2874
337.5,0.358
338.0,0.3471
338.5,0.4006
339.0,0.3964
339.5,0.3813
340.0,0.4482
340.5,0.4038
341.0,0.3938
341.5,0.3615
342.0,0.432
342.5,0.4041
343.0,0.4445
343.5,0.4187
344.0,0.3093
344.5,0.3125
345.0,0.4134
345.5,0.422
346.0,0.3586
346.5,0.4061
347.0,0.436
347.5,0.3525
348.0,0.4018
348.5,0.4016
349.0,0.3725
349.5,0.3688
350.0,0.4562
350.5,0.4812
351.0,0.4299
351.5,0.4179
352.0,0.4488
352.5,0.3502
353.0,0.441
353.5,0.4716
354.0,0.4896
354.5,0.4965
355.0,0.4949
355.5,0.4471
356.0,0.4677
356.5,0.3994
357.0,0.33
357.5,0.404
358.0,0.3202
358.5,0.2736
359.0,0.3828
359.5,0.4879
360.0,0.5172
360.5,0.4134
361.0,0.3768
361.5,0.4339
362.0,0.3752
362.5,0.5192
363.0,0.4663
363.5,0.4295
364.0,0.5253
364.5,0.4491
365.0,0.4574
365.5,0.574
366.0,0.6082
366.5,0.5715
367.0,0.5565
367.5,0.5776
368.0,0.5055
368.5,0.5101
369.0,0.5509
369.5,0.5872
370.0,0.626
370.5,0.4859
371.0,0.5192
371.5,0.6496
372.0,0.4311
372.5,0.517
373.0,0.5259
373.5,0.3422
374.0,0.4972
374.5,0.4118
375.0,0.4003
375.5,0.5977
376.0,0.4955
376.5,0.5136
377.0,0.5438
377.5,0.6362
378.0,0.6897
378.5,0.6519
379.0,0.5381
379.5,0.4915
380.0,0.5111
380.5,0.6191
381.0,0.6204
381.5,0.4918
382.0,0.4368
382.5,0.3723
383.0,0.3447
383.5,0.332
384.0,0.3663
384.5,0.5388
385.0,0.5344
385.5,0.4977
386.0,0.4263
386.5,0.56
387.0,0.4653
387.5,0.5227
388.0,0.4826
388.5,0.4771
389.0,0.515
389.5,0.6239
390.0,0.6261
390.5,0.5763
391.0,0.6784
391.5,0.692
392.0,0.5829
392.5,0.5218
393.0,0.2904
393.5,0.2111
394.0,0.4296
394.5,0.5462
395.0,0.6665
395.5,0.6771
396.0,0.5871
396.5,0.3432
397.0,0.2576
397.5,0.5239
398.0,0.7337
398.5,0.7584
399.0,0.8213
399.5,0.8186
400.0,0.8501
401.0,0.8633
402.0,0.9109
403.0,0.8653
404.0,0.8521
405.0,0.852
406.0,0.8382
407.0,0.8247
408.0,0.857
409.0,0.9173
410.0,0.8015
411.0,0.8682
412.0,0.9325
413.0,0.9095
414.0,0.9206
415.0,0.923
416.0,0.9392
417.0,0.9161
418.0,0.8992
419.0,0.9111
420.0,0.9071
421.0,0.949
422.0,0.902
423.0,0.8811
424.0,0.932
425.0,0.9303
426.0,0.9061
427.0,0.8892
428.0,0.8662
429.0,0.8204
430.0,0.718
431.0,0.7117
432.0,0.9188
433.0,0.9239
434.0,0.8579
435.0,0.8961
436.0,1.01
437.0,0.9958
438.0,0.9068
439.0,0.9381
440.0,0.9679
441.0,1.003
442.0,1.076
443.0,1.048
444.0,1.07
445.0,1.047
446.0,0.9993
447.0,1.08
448.0,1.097
449.0,1.101
450.0,1.132
451.0,1.174
452.0,1.131
453.0,1.064
454.0,1.11
455.0,1.117
456.0,1.144
457.0,1.163
458.0,1.123
459.0,1.117
460.0,1.12
461.0,1.146
462.0,1.155
463.0,1.147
464.0,1.128
465.0,1.113
466.0,1.124
467.0,1.103
468.0,1.116
469.0,1.122
470.0,1.087
471.0,1.085
472.0,1.143
473.0,1.129
474.0,1.13
475.0,1.14
476.0,1.107
477.0,1.11
478.0,1.141
479.0,1.133
480.0,1.135
481.0,1.156
482.0,1.162
483.0,1.148
484.0,1.124
485.0,1.071
486.0,0.9359
487.0,0.9807
488.0,1.076
489.0,1.079
490.0,1.135
491.0,1.116
492.0,1.054
493.0,1.088
494.0,1.099
495.0,1.108
496.0,1.115
497.0,1.132
498.0,1.079
499.0,1.093
500.0,1.062
501.0,1.042
502.0,1.028
503.0,1.07
504.0,1.044
505.0,1.081
506.0,1.116
507.0,1.062
508.0,1.028
509.0,1.057
510.0,1.051
511.0,1.079
512.0,1.09
513.0,1.032
514.0,1.025
515.0,1.015
516.0,1.012
517.0,0.8994
518.0,0.9456
519.0,0.9918
520.0,1.028
521.0,1.038
522.0,1.039
523.0,1.02
524.0,1.057
525.0,1.069
526.0,1.022
527.0,0.963
528.0,1.019
529.0,1.074
530.0,1.059
531.0,1.074
532.0,1.038
533.0,1.007
534.0,1.037
535.0,1.059
536.0,1.069
537.0,1.027
538.0,1.045
539.0,1.036
540.0,0.9933
541.0,1.0
542.0,1.032
543.0,1.021
544.0,1.038
545.0,1.035
546.0,1.04
547.0,1.039
548.0,1.027
549.0,1.03
550.0,1.042
551.0,1.029
552.0,1.036
553.0,1.018
554.0,1.042
555.0,1.045
556.0,1.031
557.0,0.999
558.0,0.9917
559.0,0.9733
560.0,0.9856
561.0,0.9985
562.0,0.9915
563.0,1.019
564.0,0.9912
565.0,0.9828
566.0,0.9685
567.0,0.9871
568.0,0.9788
569.0,0.9565
570.0,0.9561
571.0,0.9501
572.0,0.9736
573.0,0.9841
574.0,0.9811
575.0,0.963
576.0,0.9542
577.0,0.9645
578.0,0.9498
579.0,0.953
580.0,0.9705
581.0,0.9749
582.0,0.9929
583.0,0.9949
584.0,1.003
585.0,0.9787
586.0,0.9585
587.0,0.9798
588.0,0.9573
589.0,0.8506
590.0,0.8893
591.0,0.9396
592.0,0.9286
593.0,0.9412
594.0,0.9352
595.0,0.913
596.0,0.9469
597.0,0.9372
598.0,0.9342
599.0,0.9347
600.0,0.9356
601.0,0.9276
602.0,0.9212
603.0,0.9362
604.0,0.9517
605.0,0.9466
606.0,0.9425
607.0,0.9516
608.0,0.9409
609.0,0.9424
610.0,0.9354
611.0,0.9402
612.0,0.9373
613.0,0.9254
614.0,0.9126
615.0,0.9323
616.0,0.9015
617.0,0.8996
618.0,0.9341
619.0,0.9245
620.0,0.9304
621.0,0.9315
622.0,0.9207
623.0,0.9069
624.0,0.8912
625.0,0.8892
626.0,0.9024
627.0,0.9129
628.0,0.8578
629.0,0.8931
630.0,0.8727
631.0,0.8906
632.0,0.8797
633.0,0.9057
634.0,0.8963
635.0,0.91
636.0,0.8976
637.0,0.9121
638.0,0.9204
639.0,0.9099
640.0,0.9008
641.0,0.9001
642.0,0.8958
643.0,0.9078
644.0,0.9047
645.0,0.9063
646.0,0.8858
647.0,0.8767
648.0,0.8776
649.0,0.8607
650.0,0.8631
651.0,0.9001
652.0,0.8646
653.0,0.8881
654.0,0.878
655.0,0.8463
656.0,0.7494
657.0,0.7695
658.0,0.8618
659.0,0.8677
660.0,0.8712
661.0,0.8773
662.0,0.8794
663.0,0.8619
664.0,0.8716
665.0,0.8719
666.0,0.8724
667.0,0.8714
668.0,0.8716
669.0,0.8849
670.0,0.881
671.0,0.8807
672.0,0.8731
673.0,0.8862
674.0,0.8828
675.0,0.8747
676.0,0.8806
677.0,0.8718
678.0,0.8742
679.0,0.8601
680.0,0.8669
681.0,0.8612
682.0,0.8601
683.0,0.8584
684.0,0.8541
685.0,0.8613
686.0,0.8563
687.0,0.5911
688.0,0.682
689.0,0.6841
690.0,0.7139
691.0,0.7473
692.0,0.7712
693.0,0.7653
694.0,0.7589
695.0,0.7876
696.0,0.7886
697.0,0.8335
698.0,0.8206
699.0,0.8032
700.0,0.7936
701.0,0.7862
702.0,0.7908
703.0,0.7922
704.0,0.8162
705.0,0.8175
706.0,0.8162
707.0,0.8166
708.0,0.8184
709.0,0.8188
710.0,0.8192
711.0,0.8178
712.0,0.8149
713.0,0.8071
714.0,0.81
715.0,0.7853
716.0,0.786
717.0,0.69
718.0,0.6351
719.0,0.5826
720.0,0.6109
721.0,0.6693
722.0,0.7602
723.0,0.7105
724.0,0.6434
725.0,0.6343
726.0,0.6634
727.0,0.6709
728.0,0.6331
729.0,0.6538
730.0,0.6918
731.0,0.6628
732.0,0.7058
733.0,0.7442
734.0,0.761
735.0,0.7457
736.0,0.7447
737.0,0.7477
738.0,0.7573
739.0,0.7424
740.0,0.7611
741.0,0.7532
742.0,0.7535
743.0,0.7726
744.0,0.7702
745.0,0.7701
746.0,0.7736
747.0,0.7753
748.0,0.7737
749.0,0.7648
750.0,0.7643
751.0,0.7566
752.0,0.7598
753.0,0.7636
754.0,0.7654
755.0,0.761
756.0,0.7607
757.0,0.7618
758.0,0.7524
759.0,0.7383
760.0,0.144
761.0,0.07983
762.0,0.3998
763.0,0.2122
764.0,0.308
765.0,0.3999
766.0,0.4806
767.0,0.5962
768.0,0.68
769.0,0.6924
770.0,0.714
771.0,0.7188
772.0,0.7201
773.0,0.725
774.0,0.7215
775.0,0.7159
776.0,0.7246
777.0,0.715
778.0,0.7107
779.0,0.7113
780.0,0.7073
781.0,0.708
782.0,0.7124
783.0,0.7
784.0,0.7033
785.0,0.6982
786.0,0.706
787.0,0.6945
788.0,0.6863
789.0,0.6861
790.0,0.6691
791.0,0.6737
792.0,0.6685
793.0,0.6579
794.0,0.6678
795.0,0.6794
796.0,0.6602
797.0,0.6611
798.0,0.6788
799.0,0.6748
800.0,0.6635
801.0,0.6618
802.0,0.6599
803.0,0.655
804.0,0.6557
805.0,0.6532
806.0,0.6707
807.0,0.6628
808.0,0.6633
809.0,0.6515
810.0,0.6466
811.0,0.6483
812.0,0.6309
813.0,0.6184
814.0,0.548
815.0,0.5445
816.0,0.5073
817.0,0.5161
818.0,0.4977
819.0,0.553
820.0,0.5221
821.0,0.6057
822.0,0.5891
823.0,0.408
824.0,0.5736
825.0,0.5954
826.0,0.5742
827.0,0.6045
828.0,0.5166
829.0,0.5704
830.0,0.5634
831.0,0.5652
832.0,0.5486
833.0,0.5816
834.0,0.5624
835.0,0.6149
836.0,0.5904
837.0,0.6165
838.0,0.5981
839.0,0.607
840.0,0.6201
841.0,0.6116
842.0,0.6124
843.0,0.6116
844.0,0.6033
845.0,0.6233
846.0,0.6205
847.0,0.6088
848.0,0.6052
849.0,0.5881
850.0,0.5634
851.0,0.5967
852.0,0.5924
853.0,0.57
854.0,0.4923
855.0,0.5407
856.0,0.591
857.0,0.604
858.0,0.5996
859.0,0.6001
860.0,0.6011
861.0,0.5978
862.0,0.6071
863.0,0.6215
864.0,0.5904
865.0,0.5852
866.0,0.5262
867.0,0.5491
868.0,0.5976
869.0,0.5851
870.0,0.6018
871.0,0.5936
872.0,0.5915
873.0,0.5903
874.0,0.5833
875.0,0.5715
876.0,0.5775
877.0,0.5833
878.0,0.5896
879.0,0.5806
880.0,0.5681
881.0,0.5597
882.0,0.5718
883.0,0.5735
884.0,0.5709
885.0,0.5753
886.0,0.5486
887.0,0.5542
888.0,0.5625
889.0,0.5686
890.0,0.5642
891.0,0.563
892.0,0.5472
893.0,0.5306
894.0,0.513
895.0,0.4861
896.0,0.4585
897.0,0.3956
898.0,0.4307
899.0,0.3297
900.0,0.4399
901.0,0.3455
902.0,0.4027
903.0,0.4076
904.0,0.5092
905.0,0.4922
906.0,0.4611
907.0,0.3772
908.0,0.3843
909.0,0.4151
910.0,0.3693
911.0,0.3923
912.0,0.4096
913.0,0.3749
914.0,0.3713
915.0,0.4024
916.0,0.3412
917.0,0.4307
918.0,0.3499
919.0,0.4379
920.0,0.4412
921.0,0.4587
922.0,0.4116
923.0,0.443
924.0,0.422
925.0,0.4128
926.0,0.4174
927.0,0.4658
928.0,0.3457
929.0,0.3166
930.0,0.2503
931.0,0.2369
932.0,0.1721
933.0,0.1406
934.0,0.07871
935.0,0.1433
936.0,0.09046
937.0,0.0918
938.0,0.1125
939.0,0.2296
940.0,0.2751
941.0,0.209
942.0,0.2412
943.0,0.1596
944.0,0.1672
945.0,0.2153
946.0,0.1109
947.0,0.2166
948.0,0.1593
949.0,0.2886
950.0,0.08217
951.0,0.284
952.0,0.1543
953.0,0.1981
954.0,0.2417
955.0,0.2003
956.0,0.1937
957.0,0.1547
958.0,0.2728
959.0,0.2181
960.0,0.2444
961.0,0.2733
962.0,0.2587
963.0,0.2973
964.0,0.2727
965.0,0.2961
966.0,0.2964
967.0,0.2952
968.0,0.3927
969.0,0.4105
970.0,0.3774
971.0,0.4306
972.0,0.4122
973.0,0.3602
974.0,0.3421
975.0,0.3546
976.0,0.3374
977.0,0.3825
978.0,0.364
979.0,0.3808
980.0,0.3583
981.0,0.4281
982.0,0.4098
983.0,0.3937
984.0,0.4405
985.0,0.4082
986.0,0.4479
987.0,0.4395
988.0,0.4387
989.0,0.4463
990.0,0.4361
991.0,0.4477
992.0,0.4503
993.0,0.4406
994.0,0.4501
995.0,0.4495
996.0,0.4475
997.0,0.4482
998.0,0.4461
999.0,0.4444
1000.0,0.4414
1001.0,0.4468
1002.0,0.4348
1003.0,0.4389
1004.0,0.4283
1005.0,0.4125
1006.0,0.4286
1007.0,0.4377
1008.0,0.4354
1009.0,0.4331
1010.0,0.4313
1011.0,0.4355
1012.0,0.4318
1013.0,0.4344
1014.0,0.4313
1015.0,0.4285
1016.0,0.4266
1017.0,0.4277
1018.0,0.426
1019.0,0.4171
1020.0,0.4238
1021.0,0.4232
1022.0,0.42
1023.0,0.4244
1024.0,0.419
1025.0,0.4241
1026.0,0.4223
1027.0,0.4213
1028.0,0.4204
1029.0,0.4155
1030.0,0.4183
1031.0,0.4166
1032.0,0.4154
1033.0,0.4092
1034.0,0.4092
1035.0,0.4104
1036.0,0.4126
1037.0,0.4059
1038.0,0.4077
1039.0,0.4074
1040.0,0.4058
1041.0,0.4074
1042.0,0.4046
1043.0,0.4033
1044.0,0.4047
1045.0,0.3993
1046.0,0.3949
1047.0,0.3984
1048.0,0.4006
1049.0,0.3992
1050.0,0.3973
1051.0,0.3968
1052.0,0.3952
1053.0,0.3921
1054.0,0.3929
1055.0,0.3932
1056.0,0.3918
1057.0,0.3906
1058.0,0.381
1059.0,0.3815
1060.0,0.3809
1061.0,0.3804
1062.0,0.3824
1063.0,0.3787
1064.0,0.3832
1065.0,0.3804
1066.0,0.3729
1067.0,0.3777
1068.0,0.3695
1069.0,0.3581
1070.0,0.3703
1071.0,0.3759
1072.0,0.3716
1073.0,0.3663
1074.0,0.3756
1075.0,0.3571
1076.0,0.3753
1077.0,0.3688
1078.0,0.3619
1079.0,0.3693
1080.0,0.3631
1081.0,0.3517
1082.0,0.357
1083.0,0.358
1084.0,0.3508
1085.0,0.3639
1086.0,0.3326
1087.0,0.3429
1088.0,0.3577
1089.0,0.3471
1090.0,0.3396
1091.0,0.3566
1092.0,0.3557
1093.0,0.3025
1094.0,0.3255
1095.0,0.315
1096.0,0.3019
1097.0,0.3474
1098.0,0.2973
1099.0,0.31
1100.0,0.2886
1101.0,0.2921
1102.0,0.2792
1103.0,0.2767
1104.0,0.277
1105.0,0.303
1106.0,0.2334
1107.0,0.2881
1108.0,0.2452
1109.0,0.2454
1110.0,0.2857
1111.0,0.1951
1112.0,0.2435
1113.0,0.1563
1114.0,0.1745
1115.0,0.1447
1116.0,0.1163
1117.0,0.04351
1118.0,0.1263
1119.0,0.06329
1120.0,0.0797
1121.0,0.1054
1122.0,0.04488
1123.0,0.072
1124.0,0.06078
1125.0,0.07915
1126.0,0.02806
1127.0,0.08923
1128.0,0.05393
1129.0,0.05715
1130.0,0.03782
1131.0,0.1679
1132.0,0.132
1133.0,0.08434
1134.0,0.02195
1135.0,0.008205
1136.0,0.0706
1137.0,0.1652
1138.0,0.1165
1139.0,0.1724
1140.0,0.1445
1141.0,0.1107
1142.0,0.1271
1143.0,0.1799
1144.0,0.0635
1145.0,0.08133
1146.0,0.08772
1147.0,0.03137
1148.0,0.1557
1149.0,0.1247
1150.0,0.06824
1151.0,0.1156
1152.0,0.1418
1153.0,0.1378
1154.0,0.0789
1155.0,0.1798
1156.0,0.1622
1157.0,0.1815
1158.0,0.1796
1159.0,0.1933
1160.0,0.1656
1161.0,0.2031
1162.0,0.2042
1163.0,0.2737
1164.0,0.2356
1165.0,0.223
1166.0,0.2209
1167.0,0.2402
1168.0,0.243
1169.0,0.2485
1170.0,0.2694
1171.0,0.2628
1172.0,0.2671
1173.0,0.2688
1174.0,0.1939
1175.0,0.2623
1176.0,0.2873
1177.0,0.2765
1178.0,0.2092
1179.0,0.2896
1180.0,0.2596
1181.0,0.2678
1182.0,0.1865
1183.0,0.2635
1184.0,0.2475
1185.0,0.2393
1186.0,0.282
1187.0,0.2691
1188.0,0.1899
1189.0,0.2509
1190.0,0.2755
1191.0,0.2626
1192.0,0.2793
1193.0,0.268
1194.0,0.276
1195.0,0.2617
1196.0,0.2525
1197.0,0.2757
1198.0,0.2528
1199.0,0.2167
1200.0,0.2647
1201.0,0.2558
1202.0,0.254
1203.0,0.2519
1204.0,0.2212
1205.0,0.2594
1206.0,0.2856
1207.0,0.2535
1208.0,0.249
1209.0,0.254
1210.0,0.2642
1211.0,0.2523
1212.0,0.2501
1213.0,0.2766
1214.0,0.2557
1215.0,0.251
1216.0,0.2757
1217.0,0.2687
1218.0,0.2735
1219.0,0.2703
1220.0,0.2737
1221.0,0.2762
1222.0,0.2693
1223.0,0.2669
1224.0,0.2655
1225.0,0.2745
1226.0,0.2761
1227.0,0.2556
1228.0,0.2773
1229.0,0.2761
1230.0,0.2716
1231.0,0.2787
1232.0,0.2771
1233.0,0.2683
1234.0,0.2783
1235.0,0.2767
1236.0,0.2786
1237.0,0.275
1238.0,0.2777
1239.0,0.2741
1240.0,0.2751
1241.0,0.274
1242.0,0.2732
1243.0,0.271
1244.0,0.273
1245.0,0.2741
1246.0,0.2725
1247.0,0.2715
1248.0,0.2714
1249.0,0.2722
1250.0,0.2706
1251.0,0.2672
1252.0,0.2671
1253.0,0.2652
1254.0,0.2628
1255.0,0.2669
1256.0,0.2599
1257.0,0.2586
1258.0,0.263
1259.0,0.2542
1260.0,0.2555
1261.0,0.2421
1262.0,0.2353
1263.0,0.2358
1264.0,0.2188
1265.0,0.2342
1266.0,0.2261
1267.0,0.2296
1268.0,0.2184
1269.0,0.1404
1270.0,0.2289
1271.0,0.2411
1272.0,0.2418
1273.0,0.2394
1274.0,0.24
1275.0,0.2433
1276.0,0.2455
1277.0,0.2469
1278.0,0.2513
1279.0,0.249
1280.0,0.2458
1281.0,0.2344
1282.0,0.2256
1283.0,0.243
1284.0,0.2489
1285.0,0.2505
1286.0,0.2537
1287.0,0.2501
1288.0,0.2499
1289.0,0.2426
1290.0,0.2477
1291.0,0.251
1292.0,0.2369
1293.0,0.2464
1294.0,0.2447
1295.0,0.2438
1296.0,0.2335
1297.0,0.2214
1298.0,0.2372
1299.0,0.2466
1300.0,0.2106
1301.0,0.2167
1302.0,0.2364
1303.0,0.2076
1304.0,0.1788
1305.0,0.2317
1306.0,0.2318
1307.0,0.182
1308.0,0.2077
1309.0,0.2302
1310.0,0.1787
1311.0,0.1995
1312.0,0.1944
1313.0,0.1909
1314.0,0.1714
1315.0,0.1696
1316.0,0.1966
1317.0,0.1864
1318.0,0.202
1319.0,0.1598
1320.0,0.1544
1321.0,0.1792
1322.0,0.1813
1323.0,0.1379
1324.0,0.1567
1325.0,0.1939
1326.0,0.1674
1327.0,0.1599
1328.0,0.1384
1329.0,0.1051
1330.0,0.1362
1331.0,0.08361
1332.0,0.08587
1333.0,0.1192
1334.0,0.1003
1335.0,0.1374
1336.0,0.1094
1337.0,0.09706
1338.0,0.105
1339.0,0.1044
1340.0,0.1012
1341.0,0.09958
1342.0,0.1045
1343.0,0.07237
1344.0,0.04325
1345.0,0.06228
1346.0,0.03193
1347.0,0.03264
1348.0,0.002301
1349.0,0.008073
1350.0,0.008245
1351.0,0.00216
1352.0,0.0006333
1353.0,3.542e-05
1354.0,0.0001151
1355.0,1.121e-06
1356.0,1.742e-05
1357.0,2.648e-05
1358.0,1.317e-06
1359.0,1.914e-07
1360.0,6.342e-07
1361.0,9.588e-10
1362.0,2.993e-12
1363.0,8.955e-07
1364.0,3.743e-07
1365.0,1.239e-12
1366.0,3.771e-06
1367.0,1.509e-06
1368.0,1.327e-14
1369.0,1.411e-07
1370.0,7.392e-08
1371.0,4.525e-09
1372.0,8.303e-07
1373.0,1.524e-05
1374.0,6.64e-05
1375.0,0.000121
1376.0,0.0001032
1377.0,4.799e-05
1378.0,0.0004564
1379.0,2.022e-05
1380.0,3.032e-05
1381.0,8.251e-07
1382.0,7.617e-07
1383.0,1.207e-08
1384.0,1.635e-07
1385.0,6.742e-07
1386.0,7.076e-07
1387.0,7.163e-05
1388.0,1.42e-06
1389.0,0.0002265
1390.0,0.0001951
1391.0,0.000132
1392.0,8.788e-06
1393.0,4.503e-05
1394.0,2.583e-05
1395.0,2.052e-07
1396.0,1.327e-09
1397.0,1.841e-05
1398.0,0.0005163
1399.0,0.0003271
1400.0,6.206e-10
1401.0,2.321e-09
1402.0,0.0008363
1403.0,0.001068
1404.0,0.0003278
1405.0,1.052e-07
1406.0,0.0008761
1407.0,7.604e-05
1408.0,0.0007134
1409.0,0.0002508
1410.0,0.0001951
1411.0,0.0009364
1412.0,0.001237
1413.0,0.01201
1414.0,0.0001531
1415.0,7.513e-05
1416.0,0.01918
1417.0,0.005948
1418.0,0.006797
1419.0,0.001061
1420.0,0.004164
1421.0,0.004504
1422.0,0.025
1423.0,0.004879
1424.0,0.009112
1425.0,0.01346
1426.0,0.01516
1427.0,0.02763
1428.0,0.002175
1429.0,0.02077
1430.0,0.03516
1431.0,0.03856
1432.0,0.001715
1433.0,0.02459
1434.0,0.01254
1435.0,0.01264
1436.0,0.02424
1437.0,0.01857
1438.0,0.007885
1439.0,0.03291
1440.0,0.02465
1441.0,0.01885
1442.0,0.0209
1443.0,0.02616
1444.0,0.03623
1445.0,0.02839
1446.0,0.01278
1447.0,0.02013
