interpolation:linear
wavelength,value
280.0,3.651e-21
280.5,1.137e-19
281.0,5.986e-19
281.5,3.919e-19
282.0,1.134e-18
282.5,2.98e-18
283.0,9.624e-18
283.5,1.574e-17
284.0,2.549e-16
284.5,7.337e-16
285.0,1.634e-15
285.5,8.029e-15
286.0,3.218e-14
286.5,1.422e-13
287.0,4.027e-13
287.5,1.522e-12
288.0,3.964e-12
288.5,1.338e-11
289.0,3.844e-11
289.5,1.23e-10
290.0,3.538e-10
290.5,7.396e-10
291.0,1.626e-09
291.5,4.945e-09
292.0,1.086e-08
292.5,1.65e-08
293.0,3.92e-08
293.5,1.098e-07
294.0,1.901e-07
294.5,2.463e-07
295.0,4.617e-07
295.5,1.239e-06
296.0,2.484e-06
296.5,3.621e-06
297.0,5.083e-06
297.5,1.447e-05
298.0,2.407e-05
298.5,2.533e-05
299.0,5.848e-05
299.5,0.0001057
300.0,0.0001224
300.5,0.0001878
301.0,0.0003763
301.5,0.0006703
302.0,0.0006138
302.5,0.001207
303.0,0.002186
303.5,0.002767
304.0,0.002609
304.5,0.003922
305.0,0.006
305.5,0.006907
306.0,0.006699
306.5,0.008366
307.0,0.01248
307.5,0.01667
308.0,0.01762
308.5,0.02085
309.0,0.02051
309.5,0.02349
310.0,0.02361
310.5,0.03826
311.0,0.04804
311.5,0.04639
312.0,0.0464
312.5,0.05648
313.0,0.06127
313.5,0.05951
314.0,0.07441
314.5,0.06596
315.0,0.08669
315.5,0.07255
316.0,0.06334
316.5,0.09092
317.0,0.1129
317.5,0.1175
318.0,0.09167
318.5,0.1137
319.0,0.1349
319.5,0.1101
320.0,0.1331
320.5,0.1663
321.0,0.1479
321.5,0.1418
322.0,0.1514
322.5,0.1317
323.0,0.1311
323.5,0.1609
324.0,0.1878
324.5,0.1908
325.0,0.165
325.5,0.212
326.0,0.2592
326.5,0.2594
327.0,0.2587
327.5,0.25
328.0,0.2229
328.5,0.234
329.0,0.2798
329.5,0.3175
330.0,0.3205
330.5,0.2568
331.0,0.2618
331.5,0.2659
332.0,0.287
332.5,0.2838
333.0,0.2831
333.5,0.2565
334.0,0.2629
334.5,0.3031
335.0,0.2847
335.5,0.3326
336.0,0.2302
336.5,0.2697
337.0,0.2214
337.5,0.2755
338.0,0.2688
338.5,0.3103
339.0,0.3072
339.5,0.2955
340.0,0.3474
340.5,0.3132
341.0,0.3055
341.5,0.2805
342.0,0.3354
342.5,0.3138
343.0,0.3452
343.5,0.3251
344.0,0.2403
344.5,0.2428
345.0,0.3214
345.5,0.3282
346.0,0.279
346.5,0.316
347.0,0.3393
347.5,0.2744
348.0,0.3129
348.5,0.3128
349.0,0.2903
349.5,0.2875
350.0,0.3557
350.5,0.3753
351.0,0.3353
351.5,0.3259
352.0,0.3502
352.5,0.2734
353.0,0.3444
353.5,0.3684
354.0,0.3825
354.5,0.388
355.0,0.3868
355.5,0.3495
356.0,0.3658
356.5,0.3124
357.0,0.2581
357.5,0.3161
358.0,0.2506
358.5,0.2142
359.0,0.2996
359.5,0.3819
360.0,0.4049
360.5,0.3237
361.0,0.2952
361.5,0.34
362.0,0.2941
362.5,0.4072
363.0,0.3659
363.5,0.3371
364.0,0.4124
364.5,0.3526
365.0,0.3592
365.5,0.4509
366.0,0.4779
366.5,0.4492
367.0,0.4376
367.5,0.4542
368.0,0.3976
368.5,0.4013
369.0,0.4335
369.5,0.4622
370.0,0.4928
370.5,0.3826
371.0,0.4089
371.5,0.5117
372.0,0.3397
372.5,0.4074
373.0,0.4146
373.5,0.2698
374.0,0.3921
374.5,0.3249
375.0,0.3159
375.5,0.4717
376.0,0.3911
376.5,0.4054
377.0,0.4293
377.5,0.5024
378.0,0.5447
378.5,0.5149
379.0,0.425
379.5,0.3883
380.0,0.4038
380.5,0.4892
381.0,0.4904
381.5,0.3889
382.0,0.3455
382.5,0.2946
383.0,0.2728
383.5,0.2629
384.0,0.29
384.5,0.4267
385.0,0.4233
385.5,0.3943
386.0,0.3378
386.5,0.4439
387.0,0.3689
387.5,0.4145
388.0,0.3828
388.5,0.3785
389.0,0.4086
389.5,0.4951
390.0,0.497
390.5,0.4575
391.0,0.5386
391.5,0.5495
392.0,0.4629
392.5,0.4146
393.0,0.2307
393.5,0.1678
394.0,0.3415
394.5,0.4343
395.0,0.53
395.5,0.5385
396.0,0.467
396.5,0.2731
397.0,0.205
397.5,0.417
398.0,0.584
398.5,0.6038
399.0,0.6541
399.5,0.652
400.0,0.6772
401.0,0.6866
402.0,0.7247
403.0,0.6888
404.0,0.6784
405.0,0.6786
406.0,0.6679
407.0,0.6574
408.0,0.6832
409.0,0.7315
410.0,0.6394
411.0,0.6929
412.0,0.7445
413.0,0.7263
414.0,0.7354
415.0,0.7377
416.0,0.7509
417.0,0.7326
418.0,0.7193
419.0,0.729
420.0,0.726
421.0,0.7597
422.0,0.7223
423.0,0.7058
424.0,0.7466
425.0,0.7455
426.0,0.7265
427.0,0.7131
428.0,0.6948
429.0,0.6584
430.0,0.5763
431.0,0.5713
432.0,0.7379
433.0,0.7422
434.0,0.6893
435.0,0.7199
436.0,0.8115
437.0,0.8008
438.0,0.7294
439.0,0.7544
440.0,0.7786
441.0,0.807
442.0,0.8657
443.0,0.8432
444.0,0.8617
445.0,0.8432
446.0,0.8049
447.0,0.8705
448.0,0.884
449.0,0.8878
450.0,0.9128
451.0,0.9468
452.0,0.9124
453.0,0.8583
454.0,0.8962
455.0,0.9018
456.0,0.9234
457.0,0.9388
458.0,0.9068
459.0,0.9022
460.0,0.9047
461.0,0.9256
462.0,0.9329
463.0,0.9265
464.0,0.9114
465.0,0.9001
466.0,0.909
467.0,0.8924
468.0,0.9029
469.0,0.9077
470.0,0.8788
471.0,0.8778
472.0,0.9249
473.0,0.9129
474.0,0.9142
475.0,0.9219
476.0,0.8942
477.0,0.8966
478.0,0.9216
479.0,0.9161
480.0,0.918
481.0,0.9353
482.0,0.9403
483.0,0.9291
484.0,0.9102
485.0,0.8673
486.0,0.7583
487.0,0.7949
488.0,0.872
489.0,0.8747
490.0,0.9204
491.0,0.9046
492.0,0.8543
493.0,0.8823
494.0,0.8912
495.0,0.8988
496.0,0.9043
497.0,0.9184
498.0,0.8754
499.0,0.8866
500.0,0.8607
501.0,0.8448
502.0,0.8328
503.0,0.8665
504.0,0.8439
505.0,0.8746
506.0,0.9028
507.0,0.8591
508.0,0.8326
509.0,0.8561
510.0,0.8517
511.0,0.8746
512.0,0.8842
513.0,0.8369
514.0,0.8312
515.0,0.823
516.0,0.8209
517.0,0.7295
518.0,0.7669
519.0,0.8044
520.0,0.8337
521.0,0.8416
522.0,0.8423
523.0,0.8271
524.0,0.8566
525.0,0.8665
526.0,0.8277
527.0,0.7798
528.0,0.8247
529.0,0.8692
530.0,0.8567
531.0,0.8693
532.0,0.8394
533.0,0.8148
534.0,0.839
535.0,0.8574
536.0,0.8653
537.0,0.8312
538.0,0.846
539.0,0.8388
540.0,0.8042
541.0,0.8094
542.0,0.8346
543.0,0.826
544.0,0.8402
545.0,0.8376
546.0,0.8411
547.0,0.8409
548.0,0.8309
549.0,0.8335
550.0,0.8434
551.0,0.8332
552.0,0.839
553.0,0.8239
554.0,0.8436
555.0,0.8453
556.0,0.8343
557.0,0.8083
558.0,0.8021
559.0,0.787
560.0,0.7968
561.0,0.807
562.0,0.8011
563.0,0.8228
564.0,0.8003
565.0,0.7933
566.0,0.7816
567.0,0.7962
568.0,0.7888
569.0,0.7694
570.0,0.7693
571.0,0.7648
572.0,0.7827
573.0,0.791
574.0,0.7884
575.0,0.7735
576.0,0.7665
577.0,0.7749
578.0,0.7635
579.0,0.7668
580.0,0.7819
581.0,0.7863
582.0,0.8015
583.0,0.8037
584.0,0.8108
585.0,0.7911
586.0,0.7749
587.0,0.7917
588.0,0.7716
589.0,0.682
590.0,0.7133
591.0,0.7558
592.0,0.7457
593.0,0.7574
594.0,0.7519
595.0,0.7327
596.0,0.763
597.0,0.7544
598.0,0.7528
599.0,0.7537
600.0,0.7551
601.0,0.7492
602.0,0.7442
603.0,0.7566
604.0,0.7692
605.0,0.7653
606.0,0.7623
607.0,0.77
608.0,0.7616
609.0,0.7631
610.0,0.7578
611.0,0.7618
612.0,0.7597
613.0,0.7502
614.0,0.7401
615.0,0.7563
616.0,0.7315
617.0,0.7301
618.0,0.7582
619.0,0.7506
620.0,0.7553
621.0,0.756
622.0,0.747
623.0,0.7355
624.0,0.723
625.0,0.7214
626.0,0.732
627.0,0.7399
628.0,0.6873
629.0,0.7211
630.0,0.7044
631.0,0.7216
632.0,0.7131
633.0,0.7354
634.0,0.7286
635.0,0.7402
636.0,0.7306
637.0,0.7428
638.0,0.7502
639.0,0.7419
640.0,0.7349
641.0,0.7346
642.0,0.7314
643.0,0.7412
644.0,0.739
645.0,0.7401
646.0,0.7224
647.0,0.7128
648.0,0.7134
649.0,0.6995
650.0,0.7042
651.0,0.735
652.0,0.703
653.0,0.7253
654.0,0.7173
655.0,0.6899
656.0,0.612
657.0,0.6285
658.0,0.7048
659.0,0.71
660.0,0.713
661.0,0.7181
662.0,0.7193
663.0,0.7052
664.0,0.7139
665.0,0.7148
666.0,0.7154
667.0,0.7149
668.0,0.7154
669.0,0.7265
670.0,0.7235
671.0,0.7234
672.0,0.7172
673.0,0.7281
674.0,0.7254
675.0,0.7189
676.0,0.7239
677.0,0.7167
678.0,0.7188
679.0,0.7073
680.0,0.713
681.0,0.7083
682.0,0.7074
683.0,0.706
684.0,0.7025
685.0,0.7086
686.0,0.7043
687.0,0.4513
688.0,0.5366
689.0,0.5387
690.0,0.5677
691.0,0.6005
692.0,0.6247
693.0,0.6194
694.0,0.6143
695.0,0.6417
696.0,0.6427
697.0,0.6845
698.0,0.6738
699.0,0.6561
700.0,0.6481
701.0,0.641
702.0,0.646
703.0,0.6473
704.0,0.669
705.0,0.67
706.0,0.6698
707.0,0.6704
708.0,0.6718
709.0,0.6734
710.0,0.673
711.0,0.6723
712.0,0.6706
713.0,0.6636
714.0,0.6662
715.0,0.6445
716.0,0.6447
717.0,0.5532
718.0,0.5073
719.0,0.4641
720.0,0.4857
721.0,0.5397
722.0,0.6214
723.0,0.5765
724.0,0.517
725.0,0.5079
726.0,0.532
727.0,0.5411
728.0,0.5064
729.0,0.5275
730.0,0.558
731.0,0.5333
732.0,0.5727
733.0,0.6083
734.0,0.6234
735.0,0.6102
736.0,0.6094
737.0,0.6118
738.0,0.6227
739.0,0.6104
740.0,0.6268
741.0,0.6208
742.0,0.6217
743.0,0.6376
744.0,0.6359
745.0,0.6362
746.0,0.6391
747.0,0.6405
748.0,0.6392
749.0,0.6319
750.0,0.6316
751.0,0.6252
752.0,0.6279
753.0,0.6311
754.0,0.6325
755.0,0.6289
756.0,0.6287
757.0,0.6296
758.0,0.6217
759.0,0.6082
760.0,0.08595
761.0,0.04246
762.0,0.293
763.0,0.1367
764.0,0.2139
765.0,0.2929
766.0,0.3681
767.0,0.4734
768.0,0.5536
769.0,0.5669
770.0,0.5881
771.0,0.5937
772.0,0.5952
773.0,0.5994
774.0,0.5966
775.0,0.5921
776.0,0.5993
777.0,0.5914
778.0,0.5878
779.0,0.5883
780.0,0.585
781.0,0.5856
782.0,0.5893
783.0,0.5791
784.0,0.5819
785.0,0.5775
786.0,0.5838
787.0,0.5729
788.0,0.5654
789.0,0.5651
790.0,0.549
791.0,0.5548
792.0,0.5508
793.0,0.5418
794.0,0.5522
795.0,0.5612
796.0,0.5425
797.0,0.5431
798.0,0.5604
799.0,0.5565
800.0,0.5465
801.0,0.5445
802.0,0.5429
803.0,0.5386
804.0,0.5395
805.0,0.5383
806.0,0.5541
807.0,0.5472
808.0,0.5478
809.0,0.537
810.0,0.5322
811.0,0.5321
812.0,0.5159
813.0,0.5046
814.0,0.4407
815.0,0.4382
816.0,0.4074
817.0,0.4152
818.0,0.3989
819.0,0.4488
820.0,0.4216
821.0,0.4967
822.0,0.4819
823.0,0.3216
824.0,0.4665
825.0,0.488
826.0,0.4683
827.0,0.4955
828.0,0.4164
829.0,0.4657
830.0,0.4592
831.0,0.4609
832.0,0.4461
833.0,0.4765
834.0,0.4584
835.0,0.5063
836.0,0.4828
837.0,0.5078
838.0,0.4911
839.0,0.5003
840.0,0.5115
841.0,0.5039
842.0,0.5055
843.0,0.5059
844.0,0.4985
845.0,0.5158
846.0,0.5136
847.0,0.5042
848.0,0.5008
849.0,0.4866
850.0,0.4662
851.0,0.4933
852.0,0.49
853.0,0.4719
854.0,0.4072
855.0,0.4477
856.0,0.4891
857.0,0.5002
858.0,0.4965
859.0,0.497
860.0,0.498
861.0,0.4953
862.0,0.5031
863.0,0.515
864.0,0.4892
865.0,0.485
866.0,0.4361
867.0,0.4551
868.0,0.4952
869.0,0.485
870.0,0.4988
871.0,0.492
872.0,0.4903
873.0,0.4893
874.0,0.4835
875.0,0.4737
876.0,0.4786
877.0,0.4835
878.0,0.4886
879.0,0.4812
880.0,0.4708
881.0,0.4636
882.0,0.4736
883.0,0.4752
884.0,0.473
885.0,0.4766
886.0,0.4537
887.0,0.4589
888.0,0.4654
889.0,0.4712
890.0,0.4666
891.0,0.4661
892.0,0.4519
893.0,0.4369
894.0,0.4198
895.0,0.3945
896.0,0.3708
897.0,0.3157
898.0,0.346
899.0,0.2599
900.0,0.3561
901.0,0.2725
902.0,0.3242
903.0,0.3259
904.0,0.4166
905.0,0.4014
906.0,0.3749
907.0,0.3002
908.0,0.3069
909.0,0.3344
910.0,0.2921
911.0,0.3137
912.0,0.3286
913.0,0.2963
914.0,0.2944
915.0,0.3192
916.0,0.2694
917.0,0.3457
918.0,0.276
919.0,0.3531
920.0,0.3589
921.0,0.3735
922.0,0.3312
923.0,0.361
924.0,0.339
925.0,0.3317
926.0,0.3351
927.0,0.3778
928.0,0.2695
929.0,0.2439
930.0,0.1882
931.0,0.1788
932.0,0.1252
933.0,0.09995
934.0,0.05107
935.0,0.1038
936.0,0.06239
937.0,0.06299
938.0,0.07839
939.0,0.1731
940.0,0.2108
941.0,0.1557
942.0,0.1824
943.0,0.1173
944.0,0.126
945.0,0.1613
946.0,0.07844
947.0,0.161
948.0,0.1178
949.0,0.2191
950.0,0.0555
951.0,0.2164
952.0,0.1115
953.0,0.1472
954.0,0.184
955.0,0.1492
956.0,0.1472
957.0,0.1113
958.0,0.2133
959.0,0.1654
960.0,0.1854
961.0,0.2113
962.0,0.1996
963.0,0.2328
964.0,0.2124
965.0,0.2322
966.0,0.2316
967.0,0.2303
968.0,0.3188
969.0,0.3319
970.0,0.3036
971.0,0.352
972.0,0.3358
973.0,0.2879
974.0,0.2727
975.0,0.2848
976.0,0.268
977.0,0.3098
978.0,0.2923
979.0,0.3075
980.0,0.2883
981.0,0.3501
982.0,0.3331
983.0,0.3189
984.0,0.3626
985.0,0.3318
986.0,0.3701
987.0,0.3615
988.0,0.3609
989.0,0.3697
990.0,0.3588
991.0,0.3707
992.0,0.373
993.0,0.3633
994.0,0.373
995.0,0.3727
996.0,0.3708
997.0,0.3715
998.0,0.3697
999.0,0.3684
1000.0,0.3655
1001.0,0.3704
1002.0,0.3589
1003.0,0.3638
1004.0,0.3545
1005.0,0.342
1006.0,0.3551
1007.0,0.3628
1008.0,0.3606
1009.0,0.3584
1010.0,0.3567
1011.0,0.361
1012.0,0.3576
1013.0,0.3602
1014.0,0.3576
1015.0,0.3552
1016.0,0.3536
1017.0,0.3545
1018.0,0.3533
1019.0,0.3453
1020.0,0.3513
1021.0,0.3509
1022.0,0.348
1023.0,0.3517
1024.0,0.3466
1025.0,0.3516
1026.0,0.35
1027.0,0.3492
1028.0,0.3484
1029.0,0.3443
1030.0,0.3468
1031.0,0.3454
1032.0,0.3444
1033.0,0.3392
1034.0,0.3392
1035.0,0.3403
1036.0,0.342
1037.0,0.3365
1038.0,0.3379
1039.0,0.3377
1040.0,0.3363
1041.0,0.3376
1042.0,0.3353
1043.0,0.3342
1044.0,0.3353
1045.0,0.3307
1046.0,0.3271
1047.0,0.33
1048.0,0.3317
1049.0,0.3305
1050.0,0.3289
1051.0,0.3284
1052.0,0.327
1053.0,0.3244
1054.0,0.325
1055.0,0.3251
1056.0,0.3239
1057.0,0.3228
1058.0,0.3148
1059.0,0.3151
1060.0,0.3146
1061.0,0.3142
1062.0,0.3157
1063.0,0.3125
1064.0,0.3163
1065.0,0.3138
1066.0,0.3077
1067.0,0.3117
1068.0,0.3047
1069.0,0.2954
1070.0,0.3053
1071.0,0.3105
1072.0,0.3066
1073.0,0.3022
1074.0,0.3105
1075.0,0.2936
1076.0,0.3102
1077.0,0.3039
1078.0,0.2978
1079.0,0.3055
1080.0,0.2992
1081.0,0.289
1082.0,0.2948
1083.0,0.296
1084.0,0.288
1085.0,0.3
1086.0,0.2718
1087.0,0.282
1088.0,0.2954
1089.0,0.2851
1090.0,0.278
1091.0,0.2941
1092.0,0.2936
1093.0,0.2453
1094.0,0.2682
1095.0,0.256
1096.0,0.2441
1097.0,0.2869
1098.0,0.2398
1099.0,0.2507
1100.0,0.2315
1101.0,0.2349
1102.0,0.2234
1103.0,0.2205
1104.0,0.2209
1105.0,0.2447
1106.0,0.1811
1107.0,0.2312
1108.0,0.1924
1109.0,0.1934
1110.0,0.2286
1111.0,0.1503
1112.0,0.1922
1113.0,0.1175
1114.0,0.1317
1115.0,0.109
1116.0,0.08414
1117.0,0.02794
1118.0,0.09248
1119.0,0.0434
1120.0,0.05441
1121.0,0.0737
1122.0,0.0289
1123.0,0.04928
1124.0,0.04156
1125.0,0.05483
1126.0,0.01703
1127.0,0.06205
1128.0,0.03484
1129.0,0.03726
1130.0,0.02375
1131.0,0.1233
1132.0,0.09568
1133.0,0.05757
1134.0,0.0131
1135.0,0.005007
1136.0,0.04694
1137.0,0.1201
1138.0,0.08402
1139.0,0.1314
1140.0,0.1075
1141.0,0.0799
1142.0,0.09313
1143.0,0.1348
1144.0,0.0442
1145.0,0.05558
1146.0,0.0599
1147.0,0.01896
1148.0,0.1165
1149.0,0.09122
1150.0,0.0479
1151.0,0.08334
1152.0,0.1047
1153.0,0.1037
1154.0,0.05364
1155.0,0.137
1156.0,0.1222
1157.0,0.1391
1158.0,0.1376
1159.0,0.1499
1160.0,0.1266
1161.0,0.1592
1162.0,0.1597
1163.0,0.2211
1164.0,0.1877
1165.0,0.1752
1166.0,0.1754
1167.0,0.192
1168.0,0.1936
1169.0,0.1989
1170.0,0.2177
1171.0,0.2121
1172.0,0.2169
1173.0,0.2172
1174.0,0.1514
1175.0,0.2129
1176.0,0.236
1177.0,0.2253
1178.0,0.1665
1179.0,0.238
1180.0,0.2103
1181.0,0.2172
1182.0,0.1469
1183.0,0.2143
1184.0,0.1999
1185.0,0.192
1186.0,0.2305
1187.0,0.2187
1188.0,0.149
1189.0,0.2035
1190.0,0.2254
1191.0,0.2124
1192.0,0.2287
1193.0,0.2186
1194.0,0.2257
1195.0,0.2123
1196.0,0.2038
1197.0,0.2263
1198.0,0.2064
1199.0,0.1732
1200.0,0.2158
1201.0,0.2073
1202.0,0.2067
1203.0,0.2047
1204.0,0.1779
1205.0,0.2122
1206.0,0.2356
1207.0,0.2058
1208.0,0.2033
1209.0,0.2077
1210.0,0.2168
1211.0,0.2057
1212.0,0.2021
1213.0,0.2273
1214.0,0.2074
1215.0,0.2033
1216.0,0.2266
1217.0,0.2202
1218.0,0.2248
1219.0,0.2218
1220.0,0.225
1221.0,0.2275
1222.0,0.2214
1223.0,0.2191
1224.0,0.2174
1225.0,0.226
1226.0,0.2278
1227.0,0.209
1228.0,0.2292
1229.0,0.2279
1230.0,0.2238
1231.0,0.2308
1232.0,0.2294
1233.0,0.2206
1234.0,0.2308
1235.0,0.2292
1236.0,0.231
1237.0,0.2274
1238.0,0.2302
1239.0,0.2273
1240.0,0.2282
1241.0,0.2269
1242.0,0.2266
1243.0,0.2248
1244.0,0.2263
1245.0,0.2273
1246.0,0.226
1247.0,0.225
1248.0,0.2248
1249.0,0.2256
1250.0,0.2241
1251.0,0.2211
1252.0,0.2213
1253.0,0.2192
1254.0,0.2168
1255.0,0.221
1256.0,0.2142
1257.0,0.2129
1258.0,0.2174
1259.0,0.2086
1260.0,0.2098
1261.0,0.1969
1262.0,0.1903
1263.0,0.1907
1264.0,0.1746
1265.0,0.1895
1266.0,0.1815
1267.0,0.1852
1268.0,0.1747
1269.0,0.1025
1270.0,0.1843
1271.0,0.1963
1272.0,0.1971
1273.0,0.1949
1274.0,0.1957
1275.0,0.1987
1276.0,0.2009
1277.0,0.2025
1278.0,0.2069
1279.0,0.205
1280.0,0.2024
1281.0,0.1934
1282.0,0.1867
1283.0,0.201
1284.0,0.2057
1285.0,0.2071
1286.0,0.2101
1287.0,0.2065
1288.0,0.2065
1289.0,0.1993
1290.0,0.2048
1291.0,0.2078
1292.0,0.1939
1293.0,0.2034
1294.0,0.2019
1295.0,0.2005
1296.0,0.1906
1297.0,0.1796
1298.0,0.1947
1299.0,0.2038
1300.0,0.1702
1301.0,0.1759
1302.0,0.1941
1303.0,0.1682
1304.0,0.1413
1305.0,0.19
1306.0,0.1898
1307.0,0.1452
1308.0,0.1689
1309.0,0.1881
1310.0,0.1422
1311.0,0.1614
1312.0,0.1567
1313.0,0.1532
1314.0,0.1364
1315.0,0.1341
1316.0,0.1584
1317.0,0.1498
1318.0,0.1637
1319.0,0.1253
1320.0,0.122
1321.0,0.143
1322.0,0.144
1323.0,0.1061
1324.0,0.123
1325.0,0.156
1326.0,0.1325
1327.0,0.1259
1328.0,0.1078
1329.0,0.07897
1330.0,0.1038
1331.0,0.06028
1332.0,0.06305
1333.0,0.08828
1334.0,0.07605
1335.0,0.1056
1336.0,0.08224
1337.0,0.07212
1338.0,0.07801
1339.0,0.07802
1340.0,0.07656
1341.0,0.07318
1342.0,0.07702
1343.0,0.04913
1344.0,0.02964
1345.0,0.04282
1346.0,0.01945
1347.0,0.01946
1348.0,0.001032
1349.0,0.003919
1350.0,0.004237
1351.0,0.0008574
1352.0,0.000188
1353.0,7.822e-06
1354.0,3.103e-05
1355.0,1.615e-07
1356.0,3.775e-06
1357.0,5.772e-06
1358.0,1.947e-07
1359.0,1.754e-08
1360.0,7.908e-08
1361.0,4.398e-11
1362.0,9.094e-14
1363.0,9.525e-08
1364.0,3.933e-08
1365.0,2.171e-14
1366.0,4.551e-07
1367.0,2.007e-07
1368.0,8.089e-17
1369.0,1.45e-08
1370.0,6.209e-09
1371.0,2.991e-10
1372.0,1.109e-07
1373.0,2.798e-06
1374.0,1.518e-05
1375.0,2.717e-05
1376.0,2.818e-05
1377.0,1.25e-05
1378.0,0.0001298
1379.0,5.243e-06
1380.0,6.833e-06
1381.0,1.644e-07
1382.0,9.603e-08
1383.0,1.285e-09
1384.0,1.546e-08
1385.0,1.072e-07
1386.0,7.729e-08
1387.0,1.42e-05
1388.0,2.857e-07
1389.0,5.768e-05
1390.0,4.93e-05
1391.0,3.2e-05
1392.0,1.997e-06
1393.0,1.15e-05
1394.0,4.584e-06
1395.0,2.863e-08
1396.0,6.977e-11
1397.0,4.311e-06
1398.0,0.000143
1399.0,9.137e-05
1400.0,2.496e-11
1401.0,1.343e-10
1402.0,0.0003189
1403.0,0.0003837
1404.0,0.0001146
1405.0,1.234e-08
1406.0,0.0002766
1407.0,2.612e-05
1408.0,0.0002295
1409.0,6.782e-05
1410.0,5.961e-05
1411.0,0.0003404
1412.0,0.0004885
1413.0,0.006009
1414.0,4.787e-05
1415.0,2.167e-05
1416.0,0.01115
1417.0,0.002975
1418.0,0.003292
1419.0,0.0004956
1420.0,0.002002
1421.0,0.00219
1422.0,0.01463
1423.0,0.002737
1424.0,0.005248
1425.0,0.007508
1426.0,0.009025
1427.0,0.01772
1428.0,0.0009508
1429.0,0.01267
1430.0,0.02312
1431.0,0.02579
1432.0,0.0007413
1433.0,0.01588
1434.0,0.007818
1435.0,0.006952
1436.0,0.01473
1437.0,0.01133
1438.0,0.004423
1439.0,0.02061
