interpolation:linear
wavelength,value
280.0,2.9419999999999995e-22
280.5,9.669e-21
281.0,5.182e-20
281.5,4.074e-19
282.0,6.706e-19
282.5,1.664e-18
283.0,5.262e-18
283.5,8.567e-18
284.0,1.411e-16
284.5,4.113e-16
285.0,6.793e-16
285.5,3.392e-15
286.0,1.368e-14
286.5,6.16e-14
287.0,1.768e-13
287.5,6.815e-13
288.0,2.353e-12
288.5,7.091e-12
289.0,1.884e-11
289.5,5.68e-11
290.0,1.575e-10
290.5,3.21e-10
291.0,6.889e-10
291.5,1.978e-09
292.0,3.997e-09
292.5,5.62e-09
293.0,1.209e-08
293.5,2.951e-08
294.0,4.624e-08
294.5,6.336e-08
295.0,1.075e-07
295.5,1.815e-07
296.0,3.538e-07
296.5,5.006e-07
297.0,6.843e-07
297.5,1.869e-06
298.0,3e-06
298.5,3.065e-06
299.0,6.871e-06
299.5,1.18e-05
300.0,1.326e-05
300.5,1.965e-05
301.0,3.707e-05
301.5,6.153e-05
302.0,5.377e-05
302.5,0.0001085
303.0,0.0002043
303.5,0.000267
304.0,0.00026
304.5,0.0004268
305.0,0.0007423
305.5,0.0009291
306.0,0.0009311
306.5,0.001229
307.0,0.002079
307.5,0.003145
308.0,0.003392
308.5,0.004275
309.0,0.004354
309.5,0.005495
310.0,0.005774
310.5,0.009561
311.0,0.01245
311.5,0.01221
312.0,0.0132
312.5,0.01691
313.0,0.01884
313.5,0.01785
314.0,0.02373
314.5,0.02282
315.0,0.03042
315.5,0.02447
316.0,0.02282
316.5,0.03466
317.0,0.043
317.5,0.04404
318.0,0.0357
318.5,0.04768
319.0,0.0587
319.5,0.04512
320.0,0.05404
320.5,0.07284
321.0,0.06933
321.5,0.06692
322.0,0.06644
322.5,0.05802
323.0,0.06053
323.5,0.07769
324.0,0.09138
324.5,0.09106
325.0,0.07683
325.5,0.1026
326.0,0.1268
326.5,0.1302
327.0,0.1286
327.5,0.1229
328.0,0.106
328.5,0.1158
329.0,0.1431
329.5,0.164
330.0,0.1642
330.5,0.1284
331.0,0.1298
331.5,0.1343
332.0,0.1489
332.5,0.1491
333.0,0.1477
333.5,0.1312
334.0,0.1341
334.5,0.1581
335.0,0.1505
335.5,0.1764
336.0,0.1221
336.5,0.1417
337.0,0.1153
337.5,0.143
338.0,0.1422
338.5,0.1649
339.0,0.1635
339.5,0.1573
340.0,0.1841
340.5,0.1663
341.0,0.1627
341.5,0.1498
342.0,0.1792
342.5,0.1678
343.0,0.1844
343.5,0.1736
344.0,0.128
344.5,0.1295
345.0,0.1719
345.5,0.1758
346.0,0.1496
346.5,0.1696
347.0,0.182
347.5,0.1472
348.0,0.1681
348.5,0.1682
349.0,0.1562
349.5,0.1548
350.0,0.1916
350.5,0.2022
351.0,0.1806
351.5,0.1753
352.0,0.1886
352.5,0.1474
353.0,0.1859
353.5,0.199
354.0,0.2067
354.5,0.2097
355.0,0.2091
355.5,0.1891
356.0,0.198
356.5,0.1691
357.0,0.1398
357.5,0.1712
358.0,0.1358
358.5,0.1161
359.0,0.1624
359.5,0.207
360.0,0.2195
360.5,0.1756
361.0,0.1602
361.5,0.1847
362.0,0.16
362.5,0.2216
363.0,0.1993
363.5,0.1837
364.0,0.2249
364.5,0.1923
365.0,0.196
365.5,0.2462
366.0,0.2611
366.5,0.2455
367.0,0.2393
367.5,0.2484
368.0,0.2176
368.5,0.2197
369.0,0.2374
369.5,0.2533
370.0,0.2702
370.5,0.2099
371.0,0.2244
371.5,0.2809
372.0,0.1865
372.5,0.2238
373.0,0.2279
373.5,0.1484
374.0,0.2158
374.5,0.1788
375.0,0.174
375.5,0.2598
376.0,0.2155
376.5,0.2234
377.0,0.2368
377.5,0.2772
378.0,0.3006
378.5,0.2843
379.0,0.2347
379.5,0.2144
380.0,0.2231
380.5,0.2704
381.0,0.2712
381.5,0.2152
382.0,0.1913
382.5,0.1633
383.0,0.1513
383.5,0.1459
384.0,0.161
384.5,0.237
385.0,0.2352
385.5,0.2192
386.0,0.1879
386.5,0.247
387.0,0.2054
387.5,0.2308
388.0,0.2133
388.5,0.211
389.0,0.2279
389.5,0.2762
390.0,0.2774
390.5,0.2555
391.0,0.3009
391.5,0.3071
392.0,0.2588
392.5,0.2319
393.0,0.1292
393.5,0.09396
394.0,0.1913
394.5,0.2434
395.0,0.2972
395.5,0.3021
396.0,0.2621
396.5,0.1533
397.0,0.1152
397.5,0.2344
398.0,0.3283
398.5,0.3395
399.0,0.3681
399.5,0.3671
400.0,0.3813
401.0,0.3847
402.0,0.4065
403.0,0.3868
404.0,0.3812
405.0,0.3816
406.0,0.376
407.0,0.3705
408.0,0.3852
409.0,0.4127
410.0,0.3611
411.0,0.3917
412.0,0.4214
413.0,0.4112
414.0,0.4168
415.0,0.4185
416.0,0.4265
417.0,0.4163
418.0,0.409
419.0,0.4149
420.0,0.4135
421.0,0.4331
422.0,0.412
423.0,0.4028
424.0,0.4263
425.0,0.426
426.0,0.4157
427.0,0.4083
428.0,0.3981
429.0,0.3777
430.0,0.3309
431.0,0.3281
432.0,0.4242
433.0,0.4269
434.0,0.3966
435.0,0.4144
436.0,0.4677
437.0,0.4621
438.0,0.4212
439.0,0.4353
440.0,0.4497
441.0,0.4665
442.0,0.5007
443.0,0.4875
444.0,0.4988
445.0,0.4881
446.0,0.4666
447.0,0.5053
448.0,0.5129
449.0,0.5159
450.0,0.5308
451.0,0.5509
452.0,0.5312
453.0,0.5
454.0,0.5227
455.0,0.526
456.0,0.5389
457.0,0.548
458.0,0.529
459.0,0.5265
460.0,0.5278
461.0,0.5402
462.0,0.545
463.0,0.5413
464.0,0.5333
465.0,0.5274
466.0,0.5332
467.0,0.5233
468.0,0.5296
469.0,0.5324
470.0,0.5154
471.0,0.515
472.0,0.5427
473.0,0.5357
474.0,0.536
475.0,0.54
476.0,0.5231
477.0,0.5241
478.0,0.5389
479.0,0.5361
480.0,0.5376
481.0,0.5483
482.0,0.552
483.0,0.5462
484.0,0.5355
485.0,0.5108
486.0,0.4471
487.0,0.4691
488.0,0.5147
489.0,0.5161
490.0,0.5434
491.0,0.5344
492.0,0.5048
493.0,0.5214
494.0,0.5268
495.0,0.5314
496.0,0.5347
497.0,0.5429
498.0,0.5175
499.0,0.5238
500.0,0.5081
501.0,0.4982
502.0,0.4903
503.0,0.5092
504.0,0.4933
505.0,0.5134
506.0,0.5299
507.0,0.5044
508.0,0.4896
509.0,0.5041
510.0,0.5021
511.0,0.5162
512.0,0.5221
513.0,0.4943
514.0,0.4912
515.0,0.4863
516.0,0.485
517.0,0.4311
518.0,0.4532
519.0,0.4753
520.0,0.4925
521.0,0.497
522.0,0.4972
523.0,0.4881
524.0,0.505
525.0,0.5102
526.0,0.4871
527.0,0.4584
528.0,0.4843
529.0,0.51
530.0,0.5024
531.0,0.5096
532.0,0.492
533.0,0.4776
534.0,0.492
535.0,0.5031
536.0,0.508
537.0,0.4883
538.0,0.4971
539.0,0.4929
540.0,0.4724
541.0,0.4746
542.0,0.4891
543.0,0.4846
544.0,0.4923
545.0,0.4909
546.0,0.4923
547.0,0.4927
548.0,0.4872
549.0,0.4889
550.0,0.4948
551.0,0.4889
552.0,0.4923
553.0,0.4834
554.0,0.4948
555.0,0.4956
556.0,0.489
557.0,0.4736
558.0,0.4695
559.0,0.4602
560.0,0.4657
561.0,0.4713
562.0,0.4673
563.0,0.4794
564.0,0.4658
565.0,0.4613
566.0,0.4541
567.0,0.4621
568.0,0.4564
569.0,0.4426
570.0,0.4429
571.0,0.441
572.0,0.4496
573.0,0.454
574.0,0.4521
575.0,0.4429
576.0,0.439
577.0,0.444
578.0,0.4382
579.0,0.4414
580.0,0.452
581.0,0.456
582.0,0.4661
583.0,0.4684
584.0,0.4733
585.0,0.4623
586.0,0.4528
587.0,0.4618
588.0,0.4469
589.0,0.3887
590.0,0.407
591.0,0.4351
592.0,0.4271
593.0,0.4367
594.0,0.4323
595.0,0.4189
596.0,0.4414
597.0,0.435
598.0,0.4357
599.0,0.4369
600.0,0.4391
601.0,0.4366
602.0,0.4338
603.0,0.4416
604.0,0.4492
605.0,0.4473
606.0,0.4461
607.0,0.4512
608.0,0.4469
609.0,0.4482
610.0,0.4457
611.0,0.4484
612.0,0.4475
613.0,0.4422
614.0,0.4367
615.0,0.4468
616.0,0.4325
617.0,0.432
618.0,0.449
619.0,0.4446
620.0,0.4474
621.0,0.4474
622.0,0.4417
623.0,0.4346
624.0,0.4275
625.0,0.4266
626.0,0.4327
627.0,0.4362
628.0,0.3906
629.0,0.42
630.0,0.4097
631.0,0.4247
632.0,0.4207
633.0,0.4359
634.0,0.4335
635.0,0.4413
636.0,0.4365
637.0,0.4445
638.0,0.4501
639.0,0.4457
640.0,0.4422
641.0,0.4425
642.0,0.4412
643.0,0.4473
644.0,0.4466
645.0,0.4469
646.0,0.4344
647.0,0.4246
648.0,0.4251
649.0,0.4163
650.0,0.4243
651.0,0.4438
652.0,0.4193
653.0,0.4383
654.0,0.4339
655.0,0.4147
656.0,0.3697
657.0,0.38
658.0,0.4277
659.0,0.4316
660.0,0.4338
661.0,0.4371
662.0,0.4369
663.0,0.4287
664.0,0.4354
665.0,0.4371
666.0,0.438
667.0,0.4382
668.0,0.4391
669.0,0.4464
670.0,0.4447
671.0,0.445
672.0,0.4414
673.0,0.4483
674.0,0.447
675.0,0.4432
676.0,0.4465
677.0,0.4423
678.0,0.4438
679.0,0.4368
680.0,0.4405
681.0,0.4377
682.0,0.4372
683.0,0.4364
684.0,0.4342
685.0,0.4382
686.0,0.4353
687.0,0.2201
688.0,0.2877
689.0,0.2898
690.0,0.3149
691.0,0.3444
692.0,0.3677
693.0,0.364
694.0,0.3624
695.0,0.3862
696.0,0.3873
697.0,0.4212
698.0,0.4145
699.0,0.3975
700.0,0.3924
701.0,0.3857
702.0,0.3911
703.0,0.3925
704.0,0.4093
705.0,0.4098
706.0,0.4111
707.0,0.4121
708.0,0.4128
709.0,0.4162
710.0,0.4147
711.0,0.4152
712.0,0.4153
713.0,0.4098
714.0,0.4117
715.0,0.3959
716.0,0.3954
717.0,0.3175
718.0,0.2894
719.0,0.2631
720.0,0.273
721.0,0.3158
722.0,0.377
723.0,0.3432
724.0,0.2997
725.0,0.2918
726.0,0.3062
727.0,0.317
728.0,0.2899
729.0,0.3095
730.0,0.3257
731.0,0.3099
732.0,0.3408
733.0,0.3694
734.0,0.381
735.0,0.3716
736.0,0.3708
737.0,0.3723
738.0,0.3848
739.0,0.3773
740.0,0.3892
741.0,0.3865
742.0,0.3882
743.0,0.3984
744.0,0.3981
745.0,0.3989
746.0,0.4007
747.0,0.4017
748.0,0.401
749.0,0.3965
750.0,0.3963
751.0,0.3923
752.0,0.3941
753.0,0.3962
754.0,0.3971
755.0,0.3948
756.0,0.3947
757.0,0.3953
758.0,0.3902
759.0,0.3779
760.0,0.01973
761.0,0.007096
762.0,0.1252
763.0,0.0393
764.0,0.07718
765.0,0.125
766.0,0.1809
767.0,0.2611
768.0,0.3312
769.0,0.3453
770.0,0.3653
771.0,0.3719
772.0,0.3739
773.0,0.3768
774.0,0.3752
775.0,0.3726
776.0,0.3772
777.0,0.3723
778.0,0.37
779.0,0.3703
780.0,0.3683
781.0,0.3687
782.0,0.3711
783.0,0.3648
784.0,0.3667
785.0,0.3636
786.0,0.3674
787.0,0.3576
788.0,0.3516
789.0,0.3514
790.0,0.3375
791.0,0.3449
792.0,0.3431
793.0,0.3371
794.0,0.3474
795.0,0.352
796.0,0.3349
797.0,0.3348
798.0,0.3508
799.0,0.3474
800.0,0.3399
801.0,0.3374
802.0,0.3363
803.0,0.3329
804.0,0.3342
805.0,0.335
806.0,0.3475
807.0,0.3427
808.0,0.3432
809.0,0.3344
810.0,0.3301
811.0,0.3273
812.0,0.3136
813.0,0.3052
814.0,0.2567
815.0,0.2559
816.0,0.2367
817.0,0.2418
818.0,0.2301
819.0,0.2673
820.0,0.2482
821.0,0.3051
822.0,0.294
823.0,0.1775
824.0,0.2797
825.0,0.2998
826.0,0.2835
827.0,0.3042
828.0,0.2436
829.0,0.2828
830.0,0.278
831.0,0.279
832.0,0.2679
833.0,0.2916
834.0,0.2768
835.0,0.3147
836.0,0.294
837.0,0.3158
838.0,0.3023
839.0,0.3116
840.0,0.3193
841.0,0.3133
842.0,0.3163
843.0,0.3187
844.0,0.3129
845.0,0.3253
846.0,0.3243
847.0,0.319
848.0,0.3159
849.0,0.3069
850.0,0.2942
851.0,0.3103
852.0,0.3087
853.0,0.298
854.0,0.2565
855.0,0.283
856.0,0.3087
857.0,0.3164
858.0,0.3137
859.0,0.3145
860.0,0.3154
861.0,0.3136
862.0,0.3187
863.0,0.3262
864.0,0.31
865.0,0.3074
866.0,0.2764
867.0,0.2884
868.0,0.3139
869.0,0.3075
870.0,0.3163
871.0,0.3119
872.0,0.3109
873.0,0.3103
874.0,0.3066
875.0,0.3004
876.0,0.3034
877.0,0.3066
878.0,0.3097
879.0,0.305
880.0,0.2985
881.0,0.2934
882.0,0.2995
883.0,0.3011
884.0,0.2995
885.0,0.3017
886.0,0.2855
887.0,0.2902
888.0,0.2936
889.0,0.2986
890.0,0.2939
891.0,0.2945
892.0,0.2832
893.0,0.2717
894.0,0.2563
895.0,0.2349
896.0,0.2194
897.0,0.1803
898.0,0.2007
899.0,0.1435
900.0,0.2109
901.0,0.1504
902.0,0.1887
903.0,0.1862
904.0,0.2542
905.0,0.2429
906.0,0.225
907.0,0.1694
908.0,0.1754
909.0,0.1952
910.0,0.1626
911.0,0.1809
912.0,0.1897
913.0,0.1645
914.0,0.1652
915.0,0.1782
916.0,0.1495
917.0,0.1995
918.0,0.1524
919.0,0.2066
920.0,0.2162
921.0,0.2245
922.0,0.1933
923.0,0.2177
924.0,0.1961
925.0,0.1923
926.0,0.1932
927.0,0.2235
928.0,0.1431
929.0,0.1252
930.0,0.08995
931.0,0.08542
932.0,0.05333
933.0,0.03993
934.0,0.01533
935.0,0.04352
936.0,0.02268
937.0,0.0228
938.0,0.0296
939.0,0.08255
940.0,0.1056
941.0,0.07183
942.0,0.08721
943.0,0.05151
944.0,0.06018
945.0,0.07579
946.0,0.03095
947.0,0.07401
948.0,0.05364
949.0,0.1069
950.0,0.01953
951.0,0.1063
952.0,0.04754
953.0,0.0677
954.0,0.09031
955.0,0.06927
956.0,0.07458
957.0,0.04708
958.0,0.1139
959.0,0.08122
960.0,0.09105
961.0,0.1096
962.0,0.1033
963.0,0.1256
964.0,0.1132
965.0,0.125
966.0,0.1242
967.0,0.1227
968.0,0.1907
969.0,0.1952
970.0,0.1769
971.0,0.2141
972.0,0.2023
973.0,0.1644
974.0,0.1551
975.0,0.1648
976.0,0.1499
977.0,0.1843
978.0,0.1694
979.0,0.1806
980.0,0.1682
981.0,0.2132
982.0,0.1995
983.0,0.1892
984.0,0.2251
985.0,0.1985
986.0,0.2325
987.0,0.224
988.0,0.2239
989.0,0.234
990.0,0.2224
991.0,0.2343
992.0,0.236
993.0,0.2269
994.0,0.2364
995.0,0.2367
996.0,0.235
997.0,0.2357
998.0,0.2343
999.0,0.2336
1000.0,0.2311
1001.0,0.235
1002.0,0.2246
1003.0,0.2306
1004.0,0.2239
1005.0,0.2171
1006.0,0.2249
1007.0,0.2301
1008.0,0.2281
1009.0,0.2261
1010.0,0.2248
1011.0,0.229
1012.0,0.2263
1013.0,0.2287
1014.0,0.227
1015.0,0.2254
1016.0,0.2243
1017.0,0.2248
1018.0,0.2244
1019.0,0.2181
1020.0,0.223
1021.0,0.2229
1022.0,0.2207
1023.0,0.2229
1024.0,0.2185
1025.0,0.2233
1026.0,0.2219
1027.0,0.2215
1028.0,0.2209
1029.0,0.2181
1030.0,0.2202
1031.0,0.2191
1032.0,0.2186
1033.0,0.2153
1034.0,0.2154
1035.0,0.216
1036.0,0.217
1037.0,0.2135
1038.0,0.2144
1039.0,0.2142
1040.0,0.2133
1041.0,0.214
1042.0,0.2125
1043.0,0.2117
1044.0,0.2124
1045.0,0.2094
1046.0,0.207
1047.0,0.2087
1048.0,0.2098
1049.0,0.2089
1050.0,0.2078
1051.0,0.2074
1052.0,0.2064
1053.0,0.2045
1054.0,0.2048
1055.0,0.2047
1056.0,0.2037
1057.0,0.2028
1058.0,0.1977
1059.0,0.1976
1060.0,0.1972
1061.0,0.1968
1062.0,0.1976
1063.0,0.1955
1064.0,0.1979
1065.0,0.1959
1066.0,0.1924
1067.0,0.1948
1068.0,0.1901
1069.0,0.1846
1070.0,0.1905
1071.0,0.1947
1072.0,0.1915
1073.0,0.1889
1074.0,0.1953
1075.0,0.1817
1076.0,0.195
1077.0,0.1894
1078.0,0.1847
1079.0,0.1925
1080.0,0.1865
1081.0,0.1785
1082.0,0.1847
1083.0,0.1862
1084.0,0.1774
1085.0,0.1872
1086.0,0.1658
1087.0,0.1745
1088.0,0.1854
1089.0,0.1759
1090.0,0.1702
1091.0,0.1838
1092.0,0.184
1093.0,0.1463
1094.0,0.1671
1095.0,0.153
1096.0,0.1438
1097.0,0.1798
1098.0,0.1401
1099.0,0.1476
1100.0,0.1336
1101.0,0.1366
1102.0,0.1278
1103.0,0.1247
1104.0,0.1251
1105.0,0.1434
1106.0,0.0948
1107.0,0.1334
1108.0,0.1043
1109.0,0.106
1110.0,0.1304
1111.0,0.0768
1112.0,0.1057
1113.0,0.05625
1114.0,0.06335
1115.0,0.05168
1116.0,0.03563
1117.0,0.008418
1118.0,0.04009
1119.0,0.0155
1120.0,0.01888
1121.0,0.02728
1122.0,0.008213
1123.0,0.01724
1124.0,0.01449
1125.0,0.01999
1126.0,0.004005
1127.0,0.02285
1128.0,0.01015
1129.0,0.01109
1130.0,0.006672
1131.0,0.05362
1132.0,0.03998
1133.0,0.01989
1134.0,0.003009
1135.0,0.001266
1136.0,0.01485
1137.0,0.05049
1138.0,0.03455
1139.0,0.06415
1140.0,0.0487
1141.0,0.03299
1142.0,0.04017
1143.0,0.06266
1144.0,0.01654
1145.0,0.01916
1146.0,0.02061
1147.0,0.004406
1148.0,0.05346
1149.0,0.03922
1150.0,0.01892
1151.0,0.03428
1152.0,0.04635
1153.0,0.04856
1154.0,0.01889
1155.0,0.06675
1156.0,0.05747
1157.0,0.06995
1158.0,0.06898
1159.0,0.0772
1160.0,0.06369
1161.0,0.08584
1162.0,0.08548
1163.0,0.1293
1164.0,0.106
1165.0,0.09503
1166.0,0.09849
1167.0,0.1096
1168.0,0.1097
1169.0,0.1136
1170.0,0.1278
1171.0,0.1245
1172.0,0.1297
1173.0,0.1277
1174.0,0.08155
1175.0,0.1273
1176.0,0.1459
1177.0,0.1359
1178.0,0.09475
1179.0,0.1471
1180.0,0.1249
1181.0,0.1291
1182.0,0.08078
1183.0,0.1285
1184.0,0.1175
1185.0,0.1108
1186.0,0.1401
1187.0,0.1306
1188.0,0.08062
1189.0,0.1213
1190.0,0.1376
1191.0,0.125
1192.0,0.14
1193.0,0.1323
1194.0,0.1376
1195.0,0.1263
1196.0,0.1195
1197.0,0.1393
1198.0,0.1256
1199.0,0.09905
1200.0,0.1305
1201.0,0.123
1202.0,0.1247
1203.0,0.1222
1204.0,0.1036
1205.0,0.1298
1206.0,0.1472
1207.0,0.1232
1208.0,0.1237
1209.0,0.1266
1210.0,0.1337
1211.0,0.1246
1212.0,0.1187
1213.0,0.1402
1214.0,0.1232
1215.0,0.1204
1216.0,0.1402
1217.0,0.1351
1218.0,0.139
1219.0,0.1363
1220.0,0.1393
1221.0,0.1416
1222.0,0.1373
1223.0,0.1353
1224.0,0.1329
1225.0,0.1404
1226.0,0.1426
1227.0,0.1274
1228.0,0.1442
1229.0,0.1426
1230.0,0.1394
1231.0,0.1461
1232.0,0.1451
1233.0,0.1365
1234.0,0.1467
1235.0,0.1452
1236.0,0.1467
1237.0,0.1432
1238.0,0.1463
1239.0,0.1443
1240.0,0.1451
1241.0,0.1435
1242.0,0.144
1243.0,0.1429
1244.0,0.1436
1245.0,0.1444
1246.0,0.1436
1247.0,0.1428
1248.0,0.1422
1249.0,0.1431
1250.0,0.1419
1251.0,0.1395
1252.0,0.1403
1253.0,0.1378
1254.0,0.1354
1255.0,0.1398
1256.0,0.1334
1257.0,0.1322
1258.0,0.1366
1259.0,0.1279
1260.0,0.129
1261.0,0.1173
1262.0,0.1114
1263.0,0.1115
1264.0,0.09772
1265.0,0.1109
1266.0,0.1036
1267.0,0.1076
1268.0,0.0986
1269.0,0.04277
1270.0,0.1063
1271.0,0.1174
1272.0,0.1183
1273.0,0.1165
1274.0,0.1176
1275.0,0.1201
1276.0,0.1222
1277.0,0.1242
1278.0,0.1284
1279.0,0.1271
1280.0,0.1256
1281.0,0.1207
1282.0,0.1178
1283.0,0.1265
1284.0,0.1293
1285.0,0.1304
1286.0,0.1329
1287.0,0.1294
1288.0,0.1299
1289.0,0.1229
1290.0,0.1289
1291.0,0.1312
1292.0,0.1181
1293.0,0.1274
1294.0,0.1263
1295.0,0.124
1296.0,0.1153
1297.0,0.1068
1298.0,0.1199
1299.0,0.1281
1300.0,0.1005
1301.0,0.1049
1302.0,0.1196
1303.0,0.09995
1304.0,0.07821
1305.0,0.1168
1306.0,0.116
1307.0,0.08251
1308.0,0.1014
1309.0,0.1139
1310.0,0.08029
1311.0,0.0955
1312.0,0.09194
1313.0,0.08844
1314.0,0.07661
1315.0,0.07407
1316.0,0.09261
1317.0,0.08672
1318.0,0.09731
1319.0,0.0677
1320.0,0.06722
1321.0,0.08127
1322.0,0.08049
1323.0,0.05394
1324.0,0.06674
1325.0,0.09038
1326.0,0.07342
1327.0,0.06882
1328.0,0.05702
1329.0,0.0372
1330.0,0.05141
1331.0,0.02524
1332.0,0.02769
1333.0,0.03962
1334.0,0.03744
1335.0,0.05316
1336.0,0.03862
1337.0,0.03327
1338.0,0.0356
1339.0,0.03622
1340.0,0.03698
1341.0,0.03197
1342.0,0.03413
1343.0,0.01694
1344.0,0.01074
1345.0,0.01505
1346.0,0.00467
1347.0,0.004306
1348.0,0.0001068
1349.0,0.0004782
1350.0,0.0005787
1351.0,5.794e-05
1352.0,5.061e-06
1353.0,1.324e-07
1354.0,7.887e-07
1355.0,1.855e-09
1356.0,6.384e-08
1357.0,9.629e-08
1358.0,2.243e-09
1359.0,2.142e-10
1360.0,8.789e-10
1361.0,8.243e-13
1362.0,2.248e-15
1363.0,1.059e-09
1364.0,4.469e-10
1365.0,7.839e-16
1366.0,4.79e-09
1367.0,2.174e-09
1368.0,6.053e-18
1369.0,1.65e-10
1370.0,7.707e-11
1371.0,4.271e-12
1372.0,1.204e-09
1373.0,3.503e-08
1374.0,2.587e-07
1375.0,3.961e-07
1376.0,7.368e-07
1377.0,3.03e-07
1378.0,3.187e-06
1379.0,1.324e-07
1380.0,1.186e-07
1381.0,2.644e-09
1382.0,1.009e-09
1383.0,1.425e-11
1384.0,1.74e-10
1385.0,1.258e-09
1386.0,8.152e-10
1387.0,1.696e-07
1388.0,4.545e-09
1389.0,1.141e-06
1390.0,8.951e-07
1391.0,5.835e-07
1392.0,3.761e-08
1393.0,2.627e-07
1394.0,5.145e-08
1395.0,3.091e-10
1396.0,1.077e-12
1397.0,8.316e-08
1398.0,3.128e-06
1399.0,2.12e-06
1400.0,4.581e-13
1401.0,1.919e-12
1402.0,2.025e-05
1403.0,1.929e-05
1404.0,5.072e-06
1405.0,1.26e-10
1406.0,8.467e-06
1407.0,1.384e-06
1408.0,7.598e-06
1409.0,1.401e-06
1410.0,2.045e-06
1411.0,1.802e-05
1412.0,3.365e-05
1413.0,0.0007376
1414.0,1.797e-06
1415.0,6.69e-07
1416.0,0.002338
1417.0,0.0004365
1418.0,0.0003721
1419.0,5.169e-05
1420.0,0.0002236
1421.0,0.0003009
1422.0,0.003052
1423.0,0.0005415
1424.0,0.001155
1425.0,0.001428
1426.0,0.00215
1427.0,0.004975
1428.0,8.891e-05
1429.0,0.003043
1430.0,0.007111
