interpolation:linear
wavelength,value
280.0,4.1430000000000006e-20
280.5,1.169e-18
281.0,5.963e-18
281.5,4.468e-19
282.0,1.934e-18
282.5,5.47e-18
283.0,1.822e-17
283.5,3.006e-17
284.0,4.742e-16
284.5,1.338e-15
285.0,2.478e-15
285.5,1.509e-14
286.0,6.42e-14
286.5,3.088e-13
287.0,9.162e-13
287.5,3.625e-12
288.0,1.072e-11
288.5,4.238e-11
289.0,1.422e-10
289.5,5.338e-10
290.0,1.746e-09
290.5,4.065e-09
291.0,1.014e-08
291.5,3.483e-08
292.0,9.498e-08
292.5,1.497e-07
293.0,3.726e-07
293.5,1.116e-06
294.0,2.042e-06
294.5,2.675e-06
295.0,5.244e-06
295.5,1.277e-05
296.0,2.437e-05
296.5,3.369e-05
297.0,4.512e-05
297.5,0.000119
298.0,0.0001848
298.5,0.0001837
299.0,0.0004003
299.5,0.0006495
300.0,0.0007057
300.5,0.001009
301.0,0.001786
301.5,0.002792
302.0,0.002366
302.5,0.00447
303.0,0.007686
303.5,0.009408
304.0,0.008665
304.5,0.01227
305.0,0.0173
305.5,0.01893
306.0,0.01801
306.5,0.02178
307.0,0.03032
307.5,0.03796
308.0,0.03971
308.5,0.04554
309.0,0.04394
309.5,0.04827
310.0,0.04758
310.5,0.07633
311.0,0.09429
311.5,0.09039
312.0,0.0873
312.5,0.1038
313.0,0.1112
313.5,0.1092
314.0,0.1328
314.5,0.1134
315.0,0.1481
315.5,0.1261
316.0,0.1068
316.5,0.1494
317.0,0.1856
317.5,0.1946
318.0,0.1491
318.5,0.1789
319.0,0.2086
319.5,0.1748
320.0,0.2121
320.5,0.2563
321.0,0.2211
321.5,0.2113
322.0,0.2329
322.5,0.2023
323.0,0.197
323.5,0.2371
324.0,0.2758
324.5,0.2825
325.0,0.2469
325.5,0.3119
326.0,0.3792
326.5,0.3752
327.0,0.3755
327.5,0.3647
328.0,0.3298
328.5,0.3401
329.0,0.4011
329.5,0.4531
330.0,0.4588
330.5,0.3714
331.0,0.3799
331.5,0.3827
332.0,0.4083
332.5,0.4015
333.0,0.4016
333.5,0.3669
334.0,0.3764
334.5,0.4297
335.0,0.4013
335.5,0.4687
336.0,0.3243
336.5,0.3808
337.0,0.3138
337.5,0.3908
338.0,0.3783
338.5,0.4365
339.0,0.4319
339.5,0.4154
340.0,0.4883
340.5,0.4397
341.0,0.4289
341.5,0.3937
342.0,0.4704
342.5,0.44
343.0,0.484
343.5,0.4558
344.0,0.3367
344.5,0.3402
345.0,0.45
345.5,0.4592
346.0,0.3902
346.5,0.4417
347.0,0.4743
347.5,0.3835
348.0,0.437
348.5,0.4367
349.0,0.4051
349.5,0.401
350.0,0.4959
350.5,0.5231
351.0,0.4673
351.5,0.4543
352.0,0.4878
352.5,0.3806
353.0,0.4792
353.5,0.5124
354.0,0.5319
354.5,0.5394
355.0,0.5376
355.5,0.4856
356.0,0.508
356.5,0.4338
357.0,0.3584
357.5,0.4388
358.0,0.3477
358.5,0.2971
359.0,0.4156
359.5,0.5297
360.0,0.5615
360.5,0.4488
361.0,0.409
361.5,0.4709
362.0,0.4071
362.5,0.5633
363.0,0.5059
363.5,0.4659
364.0,0.5698
364.5,0.487
365.0,0.496
365.5,0.6225
366.0,0.6595
366.5,0.6195
367.0,0.6033
367.5,0.6261
368.0,0.5479
368.5,0.5528
369.0,0.597
369.5,0.6363
370.0,0.6783
370.5,0.5264
371.0,0.5625
371.5,0.7037
372.0,0.467
372.5,0.56
373.0,0.5696
373.5,0.3706
374.0,0.5385
374.5,0.4459
375.0,0.4335
375.5,0.6472
376.0,0.5365
376.5,0.556
377.0,0.5886
377.5,0.6887
378.0,0.7465
378.5,0.7056
379.0,0.5824
379.5,0.532
380.0,0.5531
380.5,0.6699
381.0,0.6713
381.5,0.5321
382.0,0.4725
382.5,0.4028
383.0,0.3729
383.5,0.3591
384.0,0.3962
384.5,0.5827
385.0,0.5778
385.5,0.5381
386.0,0.4609
386.5,0.6054
387.0,0.503
387.5,0.565
388.0,0.5217
388.5,0.5157
389.0,0.5567
389.5,0.6742
390.0,0.6766
390.5,0.6227
391.0,0.733
391.5,0.7476
392.0,0.6297
392.5,0.5637
393.0,0.3137
393.5,0.228
394.0,0.464
394.5,0.5899
395.0,0.7198
395.5,0.7312
396.0,0.634
396.5,0.3706
397.0,0.2781
397.5,0.5656
398.0,0.7921
398.5,0.8188
399.0,0.8865
399.5,0.8836
400.0,0.9176
401.0,0.9323
402.0,0.9835
403.0,0.9342
404.0,0.9198
405.0,0.9197
406.0,0.9046
407.0,0.8899
408.0,0.9248
409.0,0.9897
410.0,0.8647
411.0,0.9366
412.0,1.006
413.0,0.9809
414.0,0.9928
415.0,0.9952
416.0,1.013
417.0,0.9876
418.0,0.9693
419.0,0.982
420.0,0.9776
421.0,1.023
422.0,0.972
423.0,0.9494
424.0,1.004
425.0,1.002
426.0,0.976
427.0,0.9577
428.0,0.9329
429.0,0.8834
430.0,0.773
431.0,0.7663
432.0,0.9892
433.0,0.9946
434.0,0.9235
435.0,0.9645
436.0,1.087
437.0,1.072
438.0,0.9757
439.0,1.009
440.0,1.041
441.0,1.079
442.0,1.157
443.0,1.127
444.0,1.151
445.0,1.127
446.0,1.075
447.0,1.162
448.0,1.18
449.0,1.184
450.0,1.217
451.0,1.262
452.0,1.216
453.0,1.143
454.0,1.193
455.0,1.201
456.0,1.229
457.0,1.25
458.0,1.207
459.0,1.201
460.0,1.204
461.0,1.232
462.0,1.241
463.0,1.233
464.0,1.212
465.0,1.196
466.0,1.207
467.0,1.185
468.0,1.199
469.0,1.206
470.0,1.167
471.0,1.166
472.0,1.228
473.0,1.212
474.0,1.214
475.0,1.225
476.0,1.189
477.0,1.193
478.0,1.226
479.0,1.218
480.0,1.22
481.0,1.242
482.0,1.248
483.0,1.233
484.0,1.207
485.0,1.15
486.0,1.005
487.0,1.053
488.0,1.155
489.0,1.159
490.0,1.219
491.0,1.198
492.0,1.131
493.0,1.168
494.0,1.179
495.0,1.189
496.0,1.197
497.0,1.215
498.0,1.159
499.0,1.174
500.0,1.14
501.0,1.119
502.0,1.104
503.0,1.149
504.0,1.122
505.0,1.161
506.0,1.198
507.0,1.14
508.0,1.104
509.0,1.134
510.0,1.128
511.0,1.158
512.0,1.17
513.0,1.108
514.0,1.1
515.0,1.089
516.0,1.086
517.0,0.9652
518.0,1.015
519.0,1.064
520.0,1.103
521.0,1.114
522.0,1.115
523.0,1.095
524.0,1.134
525.0,1.148
526.0,1.097
527.0,1.034
528.0,1.094
529.0,1.153
530.0,1.137
531.0,1.154
532.0,1.114
533.0,1.082
534.0,1.113
535.0,1.137
536.0,1.148
537.0,1.102
538.0,1.122
539.0,1.112
540.0,1.066
541.0,1.074
542.0,1.108
543.0,1.096
544.0,1.115
545.0,1.112
546.0,1.117
547.0,1.116
548.0,1.103
549.0,1.106
550.0,1.119
551.0,1.105
552.0,1.113
553.0,1.093
554.0,1.119
555.0,1.122
556.0,1.107
557.0,1.073
558.0,1.065
559.0,1.045
560.0,1.059
561.0,1.073
562.0,1.065
563.0,1.095
564.0,1.065
565.0,1.056
566.0,1.041
567.0,1.061
568.0,1.052
569.0,1.029
570.0,1.029
571.0,1.022
572.0,1.048
573.0,1.059
574.0,1.056
575.0,1.037
576.0,1.027
577.0,1.038
578.0,1.022
579.0,1.025
580.0,1.044
581.0,1.048
582.0,1.067
583.0,1.069
584.0,1.078
585.0,1.051
586.0,1.03
587.0,1.053
588.0,1.029
589.0,0.9161
590.0,0.9577
591.0,1.011
592.0,0.9996
593.0,1.013
594.0,1.006
595.0,0.9829
596.0,1.018
597.0,1.008
598.0,1.004
599.0,1.005
600.0,1.006
601.0,0.9966
602.0,0.9898
603.0,1.006
604.0,1.022
605.0,1.017
606.0,1.012
607.0,1.022
608.0,1.01
609.0,1.012
610.0,1.004
611.0,1.009
612.0,1.006
613.0,0.9933
614.0,0.9794
615.0,1.0
616.0,0.9673
617.0,0.9652
618.0,1.002
619.0,0.9919
620.0,0.9982
621.0,0.9994
622.0,0.988
623.0,0.9733
624.0,0.9563
625.0,0.9541
626.0,0.9683
627.0,0.9799
628.0,0.924
629.0,0.9598
630.0,0.938
631.0,0.9561
632.0,0.9442
633.0,0.9716
634.0,0.9612
635.0,0.9757
636.0,0.9622
637.0,0.9776
638.0,0.9863
639.0,0.9749
640.0,0.965
641.0,0.9641
642.0,0.9594
643.0,0.9723
644.0,0.9688
645.0,0.9706
646.0,0.949
647.0,0.9401
648.0,0.9412
649.0,0.9232
650.0,0.9246
651.0,0.964
652.0,0.9273
653.0,0.9511
654.0,0.9402
655.0,0.9069
656.0,0.8026
657.0,0.824
658.0,0.9225
659.0,0.9287
660.0,0.9324
661.0,0.9389
662.0,0.9414
663.0,0.9225
664.0,0.9326
665.0,0.9327
666.0,0.9331
667.0,0.9319
668.0,0.932
669.0,0.9462
670.0,0.942
671.0,0.9416
672.0,0.9334
673.0,0.9473
674.0,0.9437
675.0,0.9349
676.0,0.9412
677.0,0.9318
678.0,0.9343
679.0,0.9191
680.0,0.9264
681.0,0.9203
682.0,0.9191
683.0,0.9173
684.0,0.9127
685.0,0.9204
686.0,0.9151
687.0,0.6462
688.0,0.7387
689.0,0.7408
690.0,0.7708
691.0,0.8043
692.0,0.828
693.0,0.8219
694.0,0.8151
695.0,0.8441
696.0,0.8453
697.0,0.8911
698.0,0.8774
699.0,0.8602
700.0,0.8499
701.0,0.8425
702.0,0.8469
703.0,0.8484
704.0,0.8733
705.0,0.8746
706.0,0.8729
707.0,0.8732
708.0,0.8752
709.0,0.875
710.0,0.8757
711.0,0.874
712.0,0.8708
713.0,0.8626
714.0,0.8657
715.0,0.8398
716.0,0.8407
717.0,0.7433
718.0,0.6851
719.0,0.6291
720.0,0.66
721.0,0.7198
722.0,0.8139
723.0,0.7627
724.0,0.6928
725.0,0.6837
726.0,0.7147
727.0,0.7215
728.0,0.6826
729.0,0.703
730.0,0.7439
731.0,0.7133
732.0,0.7576
733.0,0.7968
734.0,0.8143
735.0,0.7982
736.0,0.7971
737.0,0.8004
738.0,0.8093
739.0,0.7935
740.0,0.8131
741.0,0.8044
742.0,0.8045
743.0,0.8248
744.0,0.8221
745.0,0.8219
746.0,0.8257
747.0,0.8274
748.0,0.8257
749.0,0.8162
750.0,0.8157
751.0,0.8074
752.0,0.8108
753.0,0.8149
754.0,0.8167
755.0,0.8121
756.0,0.8117
757.0,0.8129
758.0,0.8029
759.0,0.7886
760.0,0.1697
761.0,0.09748
762.0,0.4425
763.0,0.2442
764.0,0.3466
765.0,0.4426
766.0,0.5249
767.0,0.6441
768.0,0.7289
769.0,0.741
770.0,0.7626
771.0,0.7672
772.0,0.7683
773.0,0.7736
774.0,0.7697
775.0,0.7638
776.0,0.7731
777.0,0.7629
778.0,0.7582
779.0,0.7589
780.0,0.7546
781.0,0.7553
782.0,0.76
783.0,0.7467
784.0,0.7503
785.0,0.7449
786.0,0.7532
787.0,0.7415
788.0,0.733
789.0,0.7329
790.0,0.7156
791.0,0.7197
792.0,0.7141
793.0,0.7028
794.0,0.7125
795.0,0.7251
796.0,0.7058
797.0,0.7068
798.0,0.7246
799.0,0.7205
800.0,0.7087
801.0,0.7072
802.0,0.7051
803.0,0.7001
804.0,0.7007
805.0,0.6977
806.0,0.7159
807.0,0.7075
808.0,0.708
809.0,0.6958
810.0,0.6909
811.0,0.6932
812.0,0.6754
813.0,0.6626
814.0,0.5899
815.0,0.586
816.0,0.5464
817.0,0.5556
818.0,0.5363
819.0,0.5936
820.0,0.5614
821.0,0.6479
822.0,0.6308
823.0,0.4421
824.0,0.6153
825.0,0.6371
826.0,0.6154
827.0,0.6468
828.0,0.5558
829.0,0.6111
830.0,0.6039
831.0,0.6058
832.0,0.5885
833.0,0.6223
834.0,0.6028
835.0,0.6569
836.0,0.6321
837.0,0.6586
838.0,0.6395
839.0,0.6483
840.0,0.6621
841.0,0.6533
842.0,0.6538
843.0,0.6524
844.0,0.6439
845.0,0.6649
846.0,0.6618
847.0,0.6492
848.0,0.6456
849.0,0.6273
850.0,0.6009
851.0,0.6367
852.0,0.632
853.0,0.608
854.0,0.5253
855.0,0.5767
856.0,0.6304
857.0,0.6441
858.0,0.6395
859.0,0.6399
860.0,0.6409
861.0,0.6374
862.0,0.6474
863.0,0.6627
864.0,0.6295
865.0,0.624
866.0,0.5611
867.0,0.5855
868.0,0.6371
869.0,0.6239
870.0,0.6416
871.0,0.6329
872.0,0.6307
873.0,0.6294
874.0,0.6219
875.0,0.6093
876.0,0.6157
877.0,0.6219
878.0,0.6287
879.0,0.619
880.0,0.6057
881.0,0.5968
882.0,0.6098
883.0,0.6116
884.0,0.6088
885.0,0.6134
886.0,0.5853
887.0,0.591
888.0,0.6
889.0,0.6063
890.0,0.6019
891.0,0.6005
892.0,0.5841
893.0,0.567
894.0,0.5492
895.0,0.5217
896.0,0.4927
897.0,0.427
898.0,0.4638
899.0,0.3573
900.0,0.4726
901.0,0.3744
902.0,0.4333
903.0,0.4395
904.0,0.5451
905.0,0.5275
906.0,0.4947
907.0,0.4075
908.0,0.4148
909.0,0.4467
910.0,0.3997
911.0,0.4232
912.0,0.4413
913.0,0.4059
914.0,0.4016
915.0,0.435
916.0,0.3695
917.0,0.4638
918.0,0.379
919.0,0.471
920.0,0.4734
921.0,0.4918
922.0,0.443
923.0,0.4749
924.0,0.4543
925.0,0.4445
926.0,0.4494
927.0,0.4999
928.0,0.3758
929.0,0.3455
930.0,0.2752
931.0,0.2602
932.0,0.1912
933.0,0.1574
934.0,0.09058
935.0,0.1594
936.0,0.1022
937.0,0.1039
938.0,0.1267
939.0,0.2521
940.0,0.3007
941.0,0.2305
942.0,0.2646
943.0,0.1768
944.0,0.1837
945.0,0.237
946.0,0.1243
947.0,0.239
948.0,0.1761
949.0,0.3163
950.0,0.09355
951.0,0.3108
952.0,0.1718
953.0,0.2187
954.0,0.2647
955.0,0.2208
956.0,0.2126
957.0,0.1725
958.0,0.2963
959.0,0.2392
960.0,0.268
961.0,0.2979
962.0,0.2822
963.0,0.3229
964.0,0.2966
965.0,0.3214
966.0,0.322
967.0,0.3209
968.0,0.4215
969.0,0.441
970.0,0.4062
971.0,0.4611
972.0,0.4418
973.0,0.3885
974.0,0.3693
975.0,0.3818
976.0,0.3646
977.0,0.4109
978.0,0.3921
979.0,0.4094
980.0,0.3857
981.0,0.4583
982.0,0.4396
983.0,0.4228
984.0,0.4707
985.0,0.4379
986.0,0.478
987.0,0.4697
988.0,0.4688
989.0,0.476
990.0,0.4659
991.0,0.4775
992.0,0.4802
993.0,0.4705
994.0,0.4799
995.0,0.4792
996.0,0.4772
997.0,0.4778
998.0,0.4756
999.0,0.4739
1000.0,0.4707
1001.0,0.4764
1002.0,0.4642
1003.0,0.468
1004.0,0.4568
1005.0,0.4397
1006.0,0.4571
1007.0,0.4667
1008.0,0.4643
1009.0,0.462
1010.0,0.4602
1011.0,0.4643
1012.0,0.4604
1013.0,0.4631
1014.0,0.4599
1015.0,0.4568
1016.0,0.4548
1017.0,0.456
1018.0,0.4542
1019.0,0.4448
1020.0,0.4518
1021.0,0.4511
1022.0,0.4478
1023.0,0.4525
1024.0,0.447
1025.0,0.4521
1026.0,0.4503
1027.0,0.4492
1028.0,0.4483
1029.0,0.443
1030.0,0.4459
1031.0,0.4442
1032.0,0.4429
1033.0,0.4362
1034.0,0.4362
1035.0,0.4376
1036.0,0.4399
1037.0,0.4327
1038.0,0.4346
1039.0,0.4344
1040.0,0.4327
1041.0,0.4344
1042.0,0.4314
1043.0,0.4301
1044.0,0.4316
1045.0,0.4258
1046.0,0.4211
1047.0,0.4249
1048.0,0.4272
1049.0,0.4257
1050.0,0.4238
1051.0,0.4232
1052.0,0.4216
1053.0,0.4182
1054.0,0.4192
1055.0,0.4195
1056.0,0.4181
1057.0,0.4168
1058.0,0.4066
1059.0,0.4071
1060.0,0.4065
1061.0,0.4061
1062.0,0.4083
1063.0,0.4043
1064.0,0.409
1065.0,0.4062
1066.0,0.3981
1067.0,0.4033
1068.0,0.3946
1069.0,0.3823
1070.0,0.3954
1071.0,0.4012
1072.0,0.3968
1073.0,0.391
1074.0,0.4008
1075.0,0.3817
1076.0,0.4005
1077.0,0.3939
1078.0,0.3867
1079.0,0.394
1080.0,0.3879
1081.0,0.3759
1082.0,0.3811
1083.0,0.382
1084.0,0.3752
1085.0,0.3886
1086.0,0.3562
1087.0,0.3665
1088.0,0.3818
1089.0,0.3711
1090.0,0.3635
1091.0,0.3808
1092.0,0.3797
1093.0,0.3248
1094.0,0.3477
1095.0,0.338
1096.0,0.3245
1097.0,0.3708
1098.0,0.3197
1099.0,0.333
1100.0,0.3109
1101.0,0.3144
1102.0,0.3011
1103.0,0.2987
1104.0,0.299
1105.0,0.3257
1106.0,0.2541
1107.0,0.3103
1108.0,0.266
1109.0,0.2659
1110.0,0.308
1111.0,0.2129
1112.0,0.2636
1113.0,0.1719
1114.0,0.1917
1115.0,0.159
1116.0,0.1295
1117.0,0.0503
1118.0,0.14
1119.0,0.07162
1120.0,0.09025
1121.0,0.1184
1122.0,0.05171
1123.0,0.08147
1124.0,0.0688
1125.0,0.08923
1126.0,0.03292
1127.0,0.1005
1128.0,0.06212
1129.0,0.06562
1130.0,0.04401
1131.0,0.1858
1132.0,0.1467
1133.0,0.09549
1134.0,0.02593
1135.0,0.009639
1136.0,0.08056
1137.0,0.1833
1138.0,0.1297
1139.0,0.1886
1140.0,0.1594
1141.0,0.1232
1142.0,0.1407
1143.0,0.1978
1144.0,0.07153
1145.0,0.09203
1146.0,0.09928
1147.0,0.03686
1148.0,0.1713
1149.0,0.1383
1150.0,0.07676
1151.0,0.1287
1152.0,0.1567
1153.0,0.1514
1154.0,0.08955
1155.0,0.1968
1156.0,0.1781
1157.0,0.1984
1158.0,0.1962
1159.0,0.2104
1160.0,0.1813
1161.0,0.2204
1162.0,0.2217
1163.0,0.2942
1164.0,0.2543
1165.0,0.2418
1166.0,0.2388
1167.0,0.2591
1168.0,0.2623
1169.0,0.2679
1170.0,0.2895
1171.0,0.2825
1172.0,0.2867
1173.0,0.2889
1174.0,0.2108
1175.0,0.2815
1176.0,0.3072
1177.0,0.2963
1178.0,0.226
1179.0,0.3096
1180.0,0.2788
1181.0,0.2875
1182.0,0.2022
1183.0,0.2825
1184.0,0.2661
1185.0,0.2579
1186.0,0.3019
1187.0,0.2888
1188.0,0.206
1189.0,0.2693
1190.0,0.295
1191.0,0.2822
1192.0,0.2989
1193.0,0.2872
1194.0,0.2955
1195.0,0.2809
1196.0,0.2715
1197.0,0.2948
1198.0,0.2709
1199.0,0.2337
1200.0,0.2837
1201.0,0.2748
1202.0,0.2725
1203.0,0.2703
1204.0,0.2382
1205.0,0.2778
1206.0,0.305
1207.0,0.2721
1208.0,0.2668
1209.0,0.272
1210.0,0.2826
1211.0,0.2705
1212.0,0.2687
1213.0,0.2957
1214.0,0.2744
1215.0,0.2696
1216.0,0.2947
1217.0,0.2876
1218.0,0.2924
1219.0,0.2891
1220.0,0.2926
1221.0,0.2951
1222.0,0.2878
1223.0,0.2854
1224.0,0.2842
1225.0,0.2933
1226.0,0.2948
1227.0,0.2737
1228.0,0.2959
1229.0,0.2948
1230.0,0.2901
1231.0,0.2972
1232.0,0.2955
1233.0,0.2868
1234.0,0.2967
1235.0,0.295
1236.0,0.297
1237.0,0.2934
1238.0,0.296
1239.0,0.2922
1240.0,0.2933
1241.0,0.2922
1242.0,0.2913
1243.0,0.2889
1244.0,0.2911
1245.0,0.2922
1246.0,0.2905
1247.0,0.2895
1248.0,0.2895
1249.0,0.2902
1250.0,0.2885
1251.0,0.2851
1252.0,0.2848
1253.0,0.283
1254.0,0.2806
1255.0,0.2847
1256.0,0.2776
1257.0,0.2762
1258.0,0.2807
1259.0,0.2719
1260.0,0.2732
1261.0,0.2596
1262.0,0.2527
1263.0,0.2533
1264.0,0.2359
1265.0,0.2516
1266.0,0.2434
1267.0,0.2468
1268.0,0.2354
1269.0,0.1555
1270.0,0.2462
1271.0,0.2585
1272.0,0.2591
1273.0,0.2566
1274.0,0.2572
1275.0,0.2605
1276.0,0.2627
1277.0,0.2641
1278.0,0.2684
1279.0,0.2661
1280.0,0.2626
1281.0,0.2503
1282.0,0.2406
1283.0,0.2593
1284.0,0.2656
1285.0,0.2673
1286.0,0.2705
1287.0,0.2669
1288.0,0.2667
1289.0,0.2594
1290.0,0.2643
1291.0,0.2678
1292.0,0.2536
1293.0,0.2631
1294.0,0.2613
1295.0,0.2606
1296.0,0.2501
1297.0,0.2376
1298.0,0.2537
1299.0,0.2632
1300.0,0.2264
1301.0,0.2326
1302.0,0.2528
1303.0,0.223
1304.0,0.1935
1305.0,0.2479
1306.0,0.2481
1307.0,0.1965
1308.0,0.2228
1309.0,0.2465
1310.0,0.1929
1311.0,0.2144
1312.0,0.2091
1313.0,0.2056
1314.0,0.1852
1315.0,0.1835
1316.0,0.2115
1317.0,0.2008
1318.0,0.2168
1319.0,0.1734
1320.0,0.1671
1321.0,0.1933
1322.0,0.1959
1323.0,0.1505
1324.0,0.17
1325.0,0.2087
1326.0,0.1811
1327.0,0.1733
1328.0,0.1504
1329.0,0.1156
1330.0,0.1492
1331.0,0.09315
1332.0,0.09512
1333.0,0.1316
1334.0,0.1101
1335.0,0.15
1336.0,0.1202
1337.0,0.1072
1338.0,0.1159
1339.0,0.115
1340.0,0.111
1341.0,0.1102
1342.0,0.1156
1343.0,0.0821
1344.0,0.049
1345.0,0.07034
1346.0,0.03744
1347.0,0.03849
1348.0,0.002976
1349.0,0.01016
1350.0,0.01017
1351.0,0.002894
1352.0,0.0009231
1353.0,5.702e-05
1354.0,0.0001742
1355.0,2.067e-06
1356.0,2.829e-05
1357.0,4.285e-05
1358.0,2.411e-06
1359.0,4.048e-07
1360.0,1.222e-06
1361.0,2.527e-09
1362.0,9.086e-12
1363.0,1.788e-06
1364.0,7.59e-07
1365.0,4.432e-12
1366.0,7.237e-06
1367.0,2.843e-06
1368.0,6.597e-14
1369.0,2.891e-07
1370.0,1.608e-07
1371.0,1.067e-08
1372.0,1.567e-06
1373.0,2.594e-05
1374.0,0.0001055
1375.0,0.000192
1376.0,0.0001557
1377.0,7.361e-05
1378.0,0.0006751
1379.0,3.115e-05
1380.0,4.855e-05
1381.0,1.385e-06
1382.0,1.461e-06
1383.0,2.469e-08
1384.0,3.427e-07
1385.0,1.211e-06
1386.0,1.414e-06
1387.0,0.000118
1388.0,2.375e-06
1389.0,0.0003472
1390.0,0.0002989
1391.0,0.0002058
1392.0,1.41e-05
1393.0,6.946e-05
1394.0,4.426e-05
1395.0,3.841e-07
1396.0,3.357e-09
1397.0,2.922e-05
1398.0,0.000768
1399.0,0.0004866
1400.0,1.7e-09
1401.0,5.698e-09
1402.0,0.001137
1403.0,0.001475
1404.0,0.0004563
1405.0,2.075e-07
1406.0,0.001252
1407.0,0.0001074
1408.0,0.001016
1409.0,0.000376
1410.0,0.0002843
1411.0,0.00129
1412.0,0.001662
1413.0,0.01492
1414.0,0.0002219
1415.0,0.0001117
1416.0,0.02283
1417.0,0.007446
1418.0,0.008538
1419.0,0.001351
1420.0,0.005245
1421.0,0.005692
1422.0,0.02965
1423.0,0.005888
1424.0,0.01091
1425.0,0.01624
1426.0,0.01795
1427.0,0.03189
1428.0,0.002832
1429.0,0.02434
1430.0,0.04027
1431.0,0.04393
1432.0,0.002244
1433.0,0.02836
1434.0,0.01463
1435.0,0.01532
1436.0,0.02847
1437.0,0.02181
1438.0,0.009513
1439.0,0.03825
1440.0,0.02869
1441.0,0.02238
1442.0,0.02474
1443.0,0.03029
1444.0,0.04161
1445.0,0.03318
1446.0,0.01511
1447.0,0.02377
1448.0,0.07622
1449.0,0.06676
1450.0,0.0176
1451.0,0.00721
