interpolation:linear
wavelength,value
280.0,3.0870000000000005e-20
280.5,8.835e-19
281.0,4.526e-18
281.5,4.268e-19
282.0,1.789e-18
282.5,5.024e-18
283.0,1.668e-17
283.5,2.75e-17
284.0,4.353e-16
284.5,1.231e-15
285.0,2.077e-15
285.5,1.228e-14
286.0,5.172e-14
286.5,2.447e-13
287.0,7.181e-13
287.5,2.807e-12
288.0,8.615e-12
288.5,3.363e-11
289.0,1.116e-10
289.5,4.134e-10
290.0,1.337e-09
290.5,3.084e-09
291.0,7.605e-09
291.5,2.577e-08
292.0,7.107e-08
292.5,1.124e-07
293.0,2.811e-07
293.5,8.482e-07
294.0,1.561e-06
294.5,2.058e-06
295.0,4.066e-06
295.5,1.012e-05
296.0,1.946e-05
296.5,2.711e-05
297.0,3.656e-05
297.5,9.74e-05
298.0,0.0001525
298.5,0.0001527
299.0,0.0003349
299.5,0.00055
300.0,0.0006016
300.5,0.0008664
301.0,0.001552
301.5,0.002455
302.0,0.002093
302.5,0.003973
303.0,0.006866
303.5,0.008432
304.0,0.007782
304.5,0.01108
305.0,0.01573
305.5,0.01729
306.0,0.01647
306.5,0.01998
307.0,0.02798
307.5,0.03522
308.0,0.03688
308.5,0.0424
309.0,0.041
309.5,0.04521
310.0,0.04464
310.5,0.07168
311.0,0.08868
311.5,0.08506
312.0,0.08241
312.5,0.09818
313.0,0.1053
313.5,0.1033
314.0,0.1259
314.5,0.1079
315.0,0.141
315.5,0.1199
316.0,0.1018
316.5,0.1428
317.0,0.1773
317.5,0.1858
318.0,0.1426
318.5,0.1715
319.0,0.2004
319.5,0.1675
320.0,0.2032
320.5,0.2462
321.0,0.213
321.5,0.2036
322.0,0.2238
322.5,0.1944
323.0,0.1897
323.5,0.2287
324.0,0.2661
324.5,0.2723
325.0,0.2378
325.5,0.3008
326.0,0.366
326.5,0.3625
327.0,0.3627
327.5,0.3521
328.0,0.318
328.5,0.3284
329.0,0.3878
329.5,0.4383
330.0,0.4436
330.5,0.3589
331.0,0.3669
331.5,0.3699
332.0,0.395
332.5,0.3887
333.0,0.3887
333.5,0.3548
334.0,0.364
334.5,0.4159
335.0,0.3886
335.5,0.4539
336.0,0.314
336.5,0.3687
337.0,0.3037
337.5,0.3783
338.0,0.3664
338.5,0.4228
339.0,0.4183
339.5,0.4024
340.0,0.473
340.5,0.426
341.0,0.4155
341.5,0.3814
342.0,0.4557
342.5,0.4263
343.0,0.4689
343.5,0.4416
344.0,0.3262
344.5,0.3296
345.0,0.436
345.5,0.445
346.0,0.3781
346.5,0.4281
347.0,0.4597
347.5,0.3717
348.0,0.4236
348.5,0.4233
349.0,0.3926
349.5,0.3887
350.0,0.4808
350.5,0.5071
351.0,0.453
351.5,0.4404
352.0,0.4729
352.5,0.369
353.0,0.4647
353.5,0.4968
354.0,0.5157
354.5,0.523
355.0,0.5213
355.5,0.4709
356.0,0.4926
356.5,0.4206
357.0,0.3476
357.5,0.4255
358.0,0.3372
358.5,0.2882
359.0,0.4031
359.5,0.5137
360.0,0.5446
360.5,0.4352
361.0,0.3968
361.5,0.4568
362.0,0.3949
362.5,0.5465
363.0,0.4908
363.5,0.4521
364.0,0.5528
364.5,0.4725
365.0,0.4813
365.5,0.604
366.0,0.6399
366.5,0.6012
367.0,0.5855
367.5,0.6076
368.0,0.5317
368.5,0.5365
369.0,0.5794
369.5,0.6176
370.0,0.6583
370.5,0.5109
371.0,0.5459
371.5,0.683
372.0,0.4534
372.5,0.5436
373.0,0.5529
373.5,0.3598
374.0,0.5228
374.5,0.4329
375.0,0.4208
375.5,0.6283
376.0,0.5209
376.5,0.5398
377.0,0.5715
377.5,0.6687
378.0,0.7249
378.5,0.6852
379.0,0.5655
379.5,0.5166
380.0,0.5371
380.5,0.6505
381.0,0.6519
381.5,0.5167
382.0,0.4589
382.5,0.3912
383.0,0.3621
383.5,0.3488
384.0,0.3848
384.5,0.566
385.0,0.5613
385.5,0.5227
386.0,0.4477
386.5,0.5881
387.0,0.4887
387.5,0.5489
388.0,0.5068
388.5,0.501
389.0,0.5408
389.5,0.655
390.0,0.6574
390.5,0.605
391.0,0.7122
391.5,0.7264
392.0,0.6119
392.5,0.5478
393.0,0.3048
393.5,0.2216
394.0,0.4509
394.5,0.5732
395.0,0.6995
395.5,0.7106
396.0,0.6161
396.5,0.3602
397.0,0.2703
397.5,0.5497
398.0,0.7699
398.5,0.7958
399.0,0.8616
399.5,0.8588
400.0,0.8919
401.0,0.906
402.0,0.9558
403.0,0.908
404.0,0.894
405.0,0.8939
406.0,0.8793
407.0,0.8651
408.0,0.8989
409.0,0.9621
410.0,0.8407
411.0,0.9105
412.0,0.9778
413.0,0.9537
414.0,0.9653
415.0,0.9677
416.0,0.9846
417.0,0.9604
418.0,0.9426
419.0,0.955
420.0,0.9508
421.0,0.9946
422.0,0.9453
423.0,0.9234
424.0,0.9767
425.0,0.9748
426.0,0.9494
427.0,0.9316
428.0,0.9075
429.0,0.8594
430.0,0.7521
431.0,0.7455
432.0,0.9624
433.0,0.9676
434.0,0.8985
435.0,0.9385
436.0,1.057
437.0,1.043
438.0,0.9494
439.0,0.9823
440.0,1.013
441.0,1.05
442.0,1.126
443.0,1.097
444.0,1.121
445.0,1.096
446.0,1.046
447.0,1.131
448.0,1.148
449.0,1.153
450.0,1.185
451.0,1.229
452.0,1.184
453.0,1.113
454.0,1.162
455.0,1.169
456.0,1.197
457.0,1.216
458.0,1.175
459.0,1.169
460.0,1.172
461.0,1.199
462.0,1.208
463.0,1.2
464.0,1.18
465.0,1.164
466.0,1.175
467.0,1.154
468.0,1.168
469.0,1.174
470.0,1.136
471.0,1.135
472.0,1.196
473.0,1.18
474.0,1.182
475.0,1.193
476.0,1.158
477.0,1.161
478.0,1.193
479.0,1.186
480.0,1.188
481.0,1.209
482.0,1.215
483.0,1.2
484.0,1.175
485.0,1.12
486.0,0.9786
487.0,1.025
488.0,1.125
489.0,1.129
490.0,1.187
491.0,1.166
492.0,1.101
493.0,1.137
494.0,1.149
495.0,1.159
496.0,1.166
497.0,1.184
498.0,1.128
499.0,1.143
500.0,1.11
501.0,1.09
502.0,1.075
503.0,1.119
504.0,1.092
505.0,1.13
506.0,1.167
507.0,1.11
508.0,1.075
509.0,1.105
510.0,1.099
511.0,1.128
512.0,1.14
513.0,1.079
514.0,1.071
515.0,1.061
516.0,1.058
517.0,0.9401
518.0,0.9884
519.0,1.037
520.0,1.075
521.0,1.085
522.0,1.086
523.0,1.066
524.0,1.105
525.0,1.118
526.0,1.068
527.0,1.007
528.0,1.065
529.0,1.123
530.0,1.107
531.0,1.124
532.0,1.085
533.0,1.053
534.0,1.084
535.0,1.108
536.0,1.118
537.0,1.073
538.0,1.092
539.0,1.083
540.0,1.039
541.0,1.046
542.0,1.079
543.0,1.067
544.0,1.086
545.0,1.083
546.0,1.088
547.0,1.087
548.0,1.074
549.0,1.077
550.0,1.09
551.0,1.076
552.0,1.084
553.0,1.065
554.0,1.09
555.0,1.092
556.0,1.078
557.0,1.045
558.0,1.037
559.0,1.018
560.0,1.031
561.0,1.044
562.0,1.037
563.0,1.066
564.0,1.037
565.0,1.028
566.0,1.013
567.0,1.033
568.0,1.024
569.0,1.001
570.0,1.001
571.0,0.9946
572.0,1.019
573.0,1.03
574.0,1.027
575.0,1.009
576.0,0.9993
577.0,1.01
578.0,0.9945
579.0,0.9978
580.0,1.016
581.0,1.02
582.0,1.039
583.0,1.041
584.0,1.049
585.0,1.024
586.0,1.003
587.0,1.025
588.0,1.002
589.0,0.8912
590.0,0.9317
591.0,0.9838
592.0,0.9726
593.0,0.9854
594.0,0.9792
595.0,0.9563
596.0,0.9911
597.0,0.9811
598.0,0.9777
599.0,0.9782
600.0,0.9789
601.0,0.9703
602.0,0.9637
603.0,0.9794
604.0,0.9954
605.0,0.9901
606.0,0.9858
607.0,0.9952
608.0,0.9839
609.0,0.9854
610.0,0.978
611.0,0.983
612.0,0.9799
613.0,0.9675
614.0,0.954
615.0,0.9745
616.0,0.9422
617.0,0.9402
618.0,0.9762
619.0,0.9663
620.0,0.9724
621.0,0.9736
622.0,0.9624
623.0,0.948
624.0,0.9315
625.0,0.9294
626.0,0.9432
627.0,0.9544
628.0,0.8988
629.0,0.9344
630.0,0.9131
631.0,0.9312
632.0,0.9196
633.0,0.9465
634.0,0.9365
635.0,0.9507
636.0,0.9376
637.0,0.9526
638.0,0.9612
639.0,0.9502
640.0,0.9406
641.0,0.9398
642.0,0.9352
643.0,0.9478
644.0,0.9444
645.0,0.9461
646.0,0.9249
647.0,0.916
648.0,0.917
649.0,0.8994
650.0,0.9012
651.0,0.9397
652.0,0.9034
653.0,0.9271
654.0,0.9166
655.0,0.8839
656.0,0.7823
657.0,0.8033
658.0,0.8994
659.0,0.9055
660.0,0.9091
661.0,0.9154
662.0,0.9178
663.0,0.8995
664.0,0.9094
665.0,0.9096
666.0,0.91
667.0,0.9089
668.0,0.909
669.0,0.9229
670.0,0.9188
671.0,0.9184
672.0,0.9105
673.0,0.9241
674.0,0.9205
675.0,0.912
676.0,0.9182
677.0,0.909
678.0,0.9114
679.0,0.8966
680.0,0.9038
681.0,0.8978
682.0,0.8966
683.0,0.8949
684.0,0.8904
685.0,0.8979
686.0,0.8927
687.0,0.6252
688.0,0.7171
689.0,0.7192
690.0,0.7491
691.0,0.7826
692.0,0.8064
693.0,0.8003
694.0,0.7937
695.0,0.8226
696.0,0.8237
697.0,0.8692
698.0,0.8558
699.0,0.8385
700.0,0.8285
701.0,0.8211
702.0,0.8255
703.0,0.827
704.0,0.8516
705.0,0.8528
706.0,0.8513
707.0,0.8517
708.0,0.8536
709.0,0.8536
710.0,0.8542
711.0,0.8526
712.0,0.8495
713.0,0.8414
714.0,0.8445
715.0,0.8191
716.0,0.8199
717.0,0.723
718.0,0.666
719.0,0.6114
720.0,0.6413
721.0,0.7005
722.0,0.7935
723.0,0.7428
724.0,0.674
725.0,0.6649
726.0,0.6951
727.0,0.7022
728.0,0.6637
729.0,0.6843
730.0,0.724
731.0,0.694
732.0,0.7379
733.0,0.7768
734.0,0.794
735.0,0.7782
736.0,0.7771
737.0,0.7804
738.0,0.7895
739.0,0.774
740.0,0.7933
741.0,0.7849
742.0,0.7851
743.0,0.8049
744.0,0.8023
745.0,0.8022
746.0,0.8059
747.0,0.8076
748.0,0.8059
749.0,0.7966
750.0,0.7961
751.0,0.7881
752.0,0.7914
753.0,0.7954
754.0,0.7972
755.0,0.7927
756.0,0.7923
757.0,0.7934
758.0,0.7836
759.0,0.7694
760.0,0.1597
761.0,0.09056
762.0,0.4261
763.0,0.2319
764.0,0.3318
765.0,0.4263
766.0,0.508
767.0,0.6258
768.0,0.7103
769.0,0.7225
770.0,0.7441
771.0,0.7488
772.0,0.75
773.0,0.7551
774.0,0.7514
775.0,0.7456
776.0,0.7546
777.0,0.7447
778.0,0.7402
779.0,0.7408
780.0,0.7366
781.0,0.7373
782.0,0.7419
783.0,0.729
784.0,0.7324
785.0,0.7271
786.0,0.7352
787.0,0.7236
788.0,0.7152
789.0,0.7151
790.0,0.6979
791.0,0.7022
792.0,0.6968
793.0,0.6857
794.0,0.6955
795.0,0.7078
796.0,0.6885
797.0,0.6894
798.0,0.7072
799.0,0.7031
800.0,0.6915
801.0,0.6899
802.0,0.6879
803.0,0.6829
804.0,0.6836
805.0,0.6807
806.0,0.6987
807.0,0.6905
808.0,0.691
809.0,0.6789
810.0,0.674
811.0,0.6761
812.0,0.6584
813.0,0.6458
814.0,0.5739
815.0,0.5702
816.0,0.5315
817.0,0.5405
818.0,0.5216
819.0,0.5781
820.0,0.5464
821.0,0.6319
822.0,0.6149
823.0,0.4291
824.0,0.5994
825.0,0.6212
826.0,0.5997
827.0,0.6307
828.0,0.5409
829.0,0.5956
830.0,0.5885
831.0,0.5903
832.0,0.5733
833.0,0.6068
834.0,0.5874
835.0,0.6409
836.0,0.6162
837.0,0.6426
838.0,0.6238
839.0,0.6326
840.0,0.6461
841.0,0.6375
842.0,0.6381
843.0,0.6369
844.0,0.6285
845.0,0.6491
846.0,0.6461
847.0,0.6338
848.0,0.6303
849.0,0.6124
850.0,0.5866
851.0,0.6215
852.0,0.6169
853.0,0.5936
854.0,0.5127
855.0,0.563
856.0,0.6154
857.0,0.6289
858.0,0.6243
859.0,0.6247
860.0,0.6257
861.0,0.6223
862.0,0.6321
863.0,0.647
864.0,0.6146
865.0,0.6092
866.0,0.5478
867.0,0.5717
868.0,0.6221
869.0,0.6091
870.0,0.6265
871.0,0.618
872.0,0.6158
873.0,0.6145
874.0,0.6072
875.0,0.5949
876.0,0.6011
877.0,0.6072
878.0,0.6138
879.0,0.6044
880.0,0.5914
881.0,0.5827
882.0,0.5954
883.0,0.5971
884.0,0.5944
885.0,0.5989
886.0,0.5714
887.0,0.577
888.0,0.5857
889.0,0.5919
890.0,0.5875
891.0,0.5863
892.0,0.5701
893.0,0.5531
894.0,0.5354
895.0,0.5082
896.0,0.4797
897.0,0.415
898.0,0.4512
899.0,0.3468
900.0,0.4601
901.0,0.3634
902.0,0.4216
903.0,0.4274
904.0,0.5314
905.0,0.5141
906.0,0.4819
907.0,0.3959
908.0,0.4032
909.0,0.4346
910.0,0.3881
911.0,0.4114
912.0,0.4292
913.0,0.3941
914.0,0.39
915.0,0.4225
916.0,0.3587
917.0,0.4512
918.0,0.3679
919.0,0.4584
920.0,0.4611
921.0,0.4792
922.0,0.4311
923.0,0.4628
924.0,0.442
925.0,0.4324
926.0,0.4372
927.0,0.4869
928.0,0.3643
929.0,0.3344
930.0,0.2657
931.0,0.2513
932.0,0.1839
933.0,0.151
934.0,0.08599
935.0,0.1532
936.0,0.09767
937.0,0.09924
938.0,0.1213
939.0,0.2435
940.0,0.2909
941.0,0.2222
942.0,0.2557
943.0,0.1702
944.0,0.1774
945.0,0.2287
946.0,0.1191
947.0,0.2304
948.0,0.1697
949.0,0.3057
950.0,0.08915
951.0,0.3006
952.0,0.1651
953.0,0.2108
954.0,0.2559
955.0,0.213
956.0,0.2053
957.0,0.1657
958.0,0.2873
959.0,0.2311
960.0,0.259
961.0,0.2885
962.0,0.2732
963.0,0.3131
964.0,0.2875
965.0,0.3117
966.0,0.3122
967.0,0.3111
968.0,0.4105
969.0,0.4294
970.0,0.3952
971.0,0.4495
972.0,0.4305
973.0,0.3777
974.0,0.3589
975.0,0.3714
976.0,0.3542
977.0,0.4001
978.0,0.3814
979.0,0.3985
980.0,0.3752
981.0,0.4468
982.0,0.4282
983.0,0.4117
984.0,0.4592
985.0,0.4266
986.0,0.4665
987.0,0.4582
988.0,0.4574
989.0,0.4647
990.0,0.4546
991.0,0.4662
992.0,0.4688
993.0,0.4591
994.0,0.4686
995.0,0.4679
996.0,0.4659
997.0,0.4665
998.0,0.4644
999.0,0.4627
1000.0,0.4596
1001.0,0.4651
1002.0,0.453
1003.0,0.4569
1004.0,0.4459
1005.0,0.4294
1006.0,0.4463
1007.0,0.4556
1008.0,0.4533
1009.0,0.451
1010.0,0.4492
1011.0,0.4533
1012.0,0.4495
1013.0,0.4522
1014.0,0.449
1015.0,0.4461
1016.0,0.4441
1017.0,0.4452
1018.0,0.4435
1019.0,0.4343
1020.0,0.4412
1021.0,0.4405
1022.0,0.4372
1023.0,0.4418
1024.0,0.4364
1025.0,0.4414
1026.0,0.4396
1027.0,0.4386
1028.0,0.4377
1029.0,0.4326
1030.0,0.4354
1031.0,0.4337
1032.0,0.4324
1033.0,0.4259
1034.0,0.4259
1035.0,0.4273
1036.0,0.4295
1037.0,0.4225
1038.0,0.4244
1039.0,0.4242
1040.0,0.4224
1041.0,0.4242
1042.0,0.4212
1043.0,0.4199
1044.0,0.4214
1045.0,0.4157
1046.0,0.4111
1047.0,0.4148
1048.0,0.4171
1049.0,0.4156
1050.0,0.4137
1051.0,0.4132
1052.0,0.4115
1053.0,0.4083
1054.0,0.4092
1055.0,0.4095
1056.0,0.4081
1057.0,0.4068
1058.0,0.3969
1059.0,0.3974
1060.0,0.3968
1061.0,0.3963
1062.0,0.3984
1063.0,0.3945
1064.0,0.3992
1065.0,0.3964
1066.0,0.3885
1067.0,0.3936
1068.0,0.385
1069.0,0.3731
1070.0,0.3858
1071.0,0.3916
1072.0,0.3872
1073.0,0.3816
1074.0,0.3912
1075.0,0.3724
1076.0,0.3909
1077.0,0.3844
1078.0,0.3772
1079.0,0.3846
1080.0,0.3784
1081.0,0.3667
1082.0,0.3719
1083.0,0.3729
1084.0,0.3659
1085.0,0.3792
1086.0,0.3472
1087.0,0.3575
1088.0,0.3726
1089.0,0.3619
1090.0,0.3544
1091.0,0.3716
1092.0,0.3705
1093.0,0.3163
1094.0,0.3393
1095.0,0.3292
1096.0,0.3159
1097.0,0.3619
1098.0,0.3112
1099.0,0.3243
1100.0,0.3024
1101.0,0.3059
1102.0,0.2927
1103.0,0.2903
1104.0,0.2906
1105.0,0.317
1106.0,0.2462
1107.0,0.3018
1108.0,0.258
1109.0,0.2581
1110.0,0.2995
1111.0,0.2061
1112.0,0.2559
1113.0,0.1659
1114.0,0.1851
1115.0,0.1536
1116.0,0.1244
1117.0,0.04767
1118.0,0.1347
1119.0,0.06841
1120.0,0.08619
1121.0,0.1134
1122.0,0.04907
1123.0,0.07783
1124.0,0.06571
1125.0,0.08535
1126.0,0.03103
1127.0,0.09616
1128.0,0.05896
1129.0,0.06235
1130.0,0.04161
1131.0,0.179
1132.0,0.141
1133.0,0.0912
1134.0,0.02438
1135.0,0.00908
1136.0,0.07672
1137.0,0.1764
1138.0,0.1246
1139.0,0.1824
1140.0,0.1537
1141.0,0.1184
1142.0,0.1355
1143.0,0.191
1144.0,0.06844
1145.0,0.08791
1146.0,0.09484
1147.0,0.03473
1148.0,0.1653
1149.0,0.1331
1150.0,0.07348
1151.0,0.1237
1152.0,0.151
1153.0,0.1462
1154.0,0.08544
1155.0,0.1903
1156.0,0.1721
1157.0,0.192
1158.0,0.1899
1159.0,0.2038
1160.0,0.1753
1161.0,0.2138
1162.0,0.215
1163.0,0.2864
1164.0,0.2472
1165.0,0.2346
1166.0,0.2319
1167.0,0.2519
1168.0,0.255
1169.0,0.2605
1170.0,0.2819
1171.0,0.275
1172.0,0.2792
1173.0,0.2812
1174.0,0.2043
1175.0,0.2742
1176.0,0.2996
1177.0,0.2888
1178.0,0.2196
1179.0,0.3019
1180.0,0.2715
1181.0,0.28
1182.0,0.1962
1183.0,0.2753
1184.0,0.259
1185.0,0.2508
1186.0,0.2943
1187.0,0.2813
1188.0,0.1999
1189.0,0.2623
1190.0,0.2876
1191.0,0.2748
1192.0,0.2914
1193.0,0.2799
1194.0,0.288
1195.0,0.2736
1196.0,0.2643
1197.0,0.2876
1198.0,0.264
1199.0,0.2272
1200.0,0.2764
1201.0,0.2676
1202.0,0.2654
1203.0,0.2633
1204.0,0.2317
1205.0,0.2708
1206.0,0.2976
1207.0,0.265
1208.0,0.26
1209.0,0.2652
1210.0,0.2756
1211.0,0.2635
1212.0,0.2616
1213.0,0.2884
1214.0,0.2673
1215.0,0.2625
1216.0,0.2874
1217.0,0.2804
1218.0,0.2852
1219.0,0.2819
1220.0,0.2854
1221.0,0.2879
1222.0,0.2808
1223.0,0.2784
1224.0,0.2771
1225.0,0.2861
1226.0,0.2877
1227.0,0.2668
1228.0,0.2888
1229.0,0.2877
1230.0,0.2831
1231.0,0.2902
1232.0,0.2885
1233.0,0.2798
1234.0,0.2897
1235.0,0.288
1236.0,0.29
1237.0,0.2864
1238.0,0.289
1239.0,0.2853
1240.0,0.2864
1241.0,0.2853
1242.0,0.2844
1243.0,0.2821
1244.0,0.2842
1245.0,0.2853
1246.0,0.2837
1247.0,0.2826
1248.0,0.2826
1249.0,0.2833
1250.0,0.2817
1251.0,0.2783
1252.0,0.2781
1253.0,0.2763
1254.0,0.2738
1255.0,0.2779
1256.0,0.2709
1257.0,0.2695
1258.0,0.274
1259.0,0.2652
1260.0,0.2664
1261.0,0.2529
1262.0,0.2461
1263.0,0.2466
1264.0,0.2294
1265.0,0.245
1266.0,0.2368
1267.0,0.2402
1268.0,0.229
1269.0,0.1497
1270.0,0.2396
1271.0,0.2519
1272.0,0.2525
1273.0,0.25
1274.0,0.2506
1275.0,0.254
1276.0,0.2562
1277.0,0.2575
1278.0,0.2619
1279.0,0.2596
1280.0,0.2563
1281.0,0.2443
1282.0,0.2349
1283.0,0.2531
1284.0,0.2592
1285.0,0.2609
1286.0,0.2641
1287.0,0.2605
1288.0,0.2603
1289.0,0.253
1290.0,0.258
1291.0,0.2614
1292.0,0.2473
1293.0,0.2567
1294.0,0.255
1295.0,0.2542
1296.0,0.2438
1297.0,0.2315
1298.0,0.2474
1299.0,0.2569
1300.0,0.2204
1301.0,0.2266
1302.0,0.2466
1303.0,0.2172
1304.0,0.1879
1305.0,0.2417
1306.0,0.2419
1307.0,0.191
1308.0,0.217
1309.0,0.2403
1310.0,0.1875
1311.0,0.2087
1312.0,0.2035
1313.0,0.2
1314.0,0.1799
1315.0,0.1782
1316.0,0.2058
1317.0,0.1953
1318.0,0.2112
1319.0,0.1682
1320.0,0.1623
1321.0,0.1879
1322.0,0.1903
1323.0,0.1457
1324.0,0.1649
1325.0,0.2031
1326.0,0.1759
1327.0,0.1682
1328.0,0.1458
1329.0,0.1116
1330.0,0.1442
1331.0,0.08949
1332.0,0.09158
1333.0,0.1269
1334.0,0.1064
1335.0,0.1452
1336.0,0.116
1337.0,0.1033
1338.0,0.1117
1339.0,0.1109
1340.0,0.1072
1341.0,0.1062
1342.0,0.1114
1343.0,0.07835
1344.0,0.04678
1345.0,0.06724
1346.0,0.0353
1347.0,0.03622
1348.0,0.002706
1349.0,0.009332
1350.0,0.009415
1351.0,0.002598
1352.0,0.0008038
1353.0,4.785e-05
1354.0,0.0001495
1355.0,1.65e-06
1356.0,2.366e-05
1357.0,3.589e-05
1358.0,1.93e-06
1359.0,3.073e-07
1360.0,9.597e-07
1361.0,1.769e-09
1362.0,6.035e-12
1363.0,1.387e-06
1364.0,5.852e-07
1365.0,2.773e-12
1366.0,5.697e-06
1367.0,2.252e-06
1368.0,3.66e-14
1369.0,2.22e-07
1370.0,1.208e-07
1371.0,7.777e-09
1372.0,1.24e-06
1373.0,2.133e-05
1374.0,8.899e-05
1375.0,0.000162
1376.0,0.0001338
1377.0,6.287e-05
1378.0,0.0005846
1379.0,2.656e-05
1380.0,4.081e-05
1381.0,1.144e-06
1382.0,1.15e-06
1383.0,1.896e-08
1384.0,2.61e-07
1385.0,9.755e-07
1386.0,1.096e-06
1387.0,9.826e-05
1388.0,1.964e-06
1389.0,0.0002967
1390.0,0.0002555
1391.0,0.0001748
1392.0,1.184e-05
1393.0,5.92e-05
1394.0,3.631e-05
1395.0,3.048e-07
1396.0,2.386e-09
1397.0,2.464e-05
1398.0,0.0006638
1399.0,0.0004205
1400.0,1.174e-09
1401.0,4.094e-09
1402.0,0.001015
1403.0,0.00131
1404.0,0.000404
1405.0,1.615e-07
1406.0,0.001098
1407.0,9.45e-05
1408.0,0.000892
1409.0,0.0003241
1410.0,0.0002475
1411.0,0.001146
1412.0,0.001491
1413.0,0.01377
1414.0,0.0001935
1415.0,9.647e-05
1416.0,0.0214
1417.0,0.006852
1418.0,0.00785
1419.0,0.001236
1420.0,0.004817
1421.0,0.00522
1422.0,0.02784
1423.0,0.005492
1424.0,0.0102
1425.0,0.01515
1426.0,0.01686
1427.0,0.03024
1428.0,0.002569
1429.0,0.02295
1430.0,0.0383
1431.0,0.04186
1432.0,0.002032
1433.0,0.0269
1434.0,0.01382
1435.0,0.01427
1436.0,0.02683
1437.0,0.02055
1438.0,0.008875
1439.0,0.03618
1440.0,0.02712
1441.0,0.021
1442.0,0.02324
1443.0,0.0287
1444.0,0.03953
1445.0,0.03132
1446.0,0.0142
1447.0,0.02236
1448.0,0.07309
1449.0,0.06381
