interpolation:linear
wavelength,value
280.0,3.0940000000000002e-21
280.5,9.683e-20
281.0,5.107e-19
281.5,3.142e-19
282.0,1.005e-18
282.5,2.693e-18
283.0,8.81e-18
283.5,1.448e-17
284.0,2.379e-16
284.5,6.881e-16
285.0,1.578e-15
285.5,7.681e-15
286.0,3.073e-14
286.5,1.356e-13
287.0,3.836e-13
287.5,1.45e-12
288.0,3.828e-12
288.5,1.279e-11
289.0,3.645e-11
289.5,1.158e-10
290.0,3.317e-10
290.5,6.909e-10
291.0,1.514e-09
291.5,4.433e-09
292.0,9.735e-09
292.5,1.47e-08
293.0,3.458e-08
293.5,9.551e-08
294.0,1.635e-07
294.5,2.116e-07
295.0,3.92e-07
295.5,1.036e-06
296.0,2.076e-06
296.5,3.028e-06
297.0,4.256e-06
297.5,1.214e-05
298.0,2.026e-05
298.5,2.137e-05
299.0,4.949e-05
299.5,8.999e-05
300.0,0.0001047
300.5,0.0001612
301.0,0.000326
301.5,0.0005864
302.0,0.0005402
302.5,0.001066
303.0,0.001938
303.5,0.00246
304.0,0.002324
304.5,0.003514
305.0,0.005418
305.5,0.006268
306.0,0.006091
306.5,0.007631
307.0,0.01146
307.5,0.01541
308.0,0.01631
308.5,0.01936
309.0,0.01908
309.5,0.02194
310.0,0.0221
310.5,0.03584
311.0,0.04508
311.5,0.04356
312.0,0.04372
312.5,0.05333
313.0,0.05793
313.5,0.0562
314.0,0.07047
314.5,0.0627
315.0,0.08245
315.5,0.06889
316.0,0.06032
316.5,0.08681
317.0,0.1078
317.5,0.1121
318.0,0.08761
318.5,0.109
319.0,0.1295
319.5,0.1054
320.0,0.1274
320.5,0.1598
321.0,0.1425
321.5,0.1367
322.0,0.1455
322.5,0.1266
323.0,0.1262
323.5,0.1553
324.0,0.1813
324.5,0.1841
325.0,0.159
325.5,0.2046
326.0,0.2503
326.5,0.2507
327.0,0.2499
327.5,0.2414
328.0,0.215
328.5,0.226
329.0,0.2707
329.5,0.3073
330.0,0.3101
330.5,0.2482
331.0,0.253
331.5,0.2572
332.0,0.2779
332.5,0.2749
333.0,0.2742
333.5,0.2482
334.0,0.2543
334.5,0.2935
335.0,0.2759
335.5,0.3223
336.0,0.223
336.5,0.2613
337.0,0.2144
337.5,0.2667
338.0,0.2605
338.5,0.3007
339.0,0.2977
339.5,0.2865
340.0,0.3367
340.5,0.3036
341.0,0.2961
341.5,0.272
342.0,0.3251
342.5,0.3043
343.0,0.3347
343.5,0.3152
344.0,0.233
344.5,0.2354
345.0,0.3116
345.5,0.3183
346.0,0.2706
346.5,0.3065
347.0,0.3291
347.5,0.2661
348.0,0.3035
348.5,0.3034
349.0,0.2816
349.5,0.2789
350.0,0.345
350.5,0.364
351.0,0.3253
351.5,0.3162
352.0,0.3397
352.5,0.2652
353.0,0.3341
353.5,0.3574
354.0,0.3711
354.5,0.3764
355.0,0.3752
355.5,0.3391
356.0,0.3549
356.5,0.3031
357.0,0.2505
357.5,0.3067
358.0,0.2431
358.5,0.2078
359.0,0.2907
359.5,0.3705
360.0,0.3929
360.5,0.3141
361.0,0.2864
361.5,0.33
362.0,0.2855
362.5,0.3953
363.0,0.3551
363.5,0.3272
364.0,0.4004
364.5,0.3423
365.0,0.3487
365.5,0.4378
366.0,0.464
366.5,0.4361
367.0,0.4248
367.5,0.441
368.0,0.386
368.5,0.3896
369.0,0.4209
369.5,0.4488
370.0,0.4785
370.5,0.3715
371.0,0.3971
371.5,0.4969
372.0,0.3299
372.5,0.3957
373.0,0.4026
373.5,0.2621
374.0,0.3809
374.5,0.3155
375.0,0.3068
375.5,0.4581
376.0,0.3799
376.5,0.3938
377.0,0.417
377.5,0.488
378.0,0.5291
378.5,0.5002
379.0,0.4129
379.5,0.3772
380.0,0.3923
380.5,0.4753
381.0,0.4765
381.5,0.3778
382.0,0.3357
382.5,0.2863
383.0,0.2651
383.5,0.2554
384.0,0.2818
384.5,0.4147
385.0,0.4113
385.5,0.3832
386.0,0.3283
386.5,0.4314
387.0,0.3586
387.5,0.4028
388.0,0.372
388.5,0.3679
389.0,0.3972
389.5,0.4812
390.0,0.4831
390.5,0.4447
391.0,0.5236
391.5,0.5342
392.0,0.45
392.5,0.403
393.0,0.2243
393.5,0.1631
394.0,0.332
394.5,0.4222
395.0,0.5153
395.5,0.5236
396.0,0.4541
396.5,0.2655
397.0,0.1993
397.5,0.4055
398.0,0.5679
398.5,0.5871
399.0,0.636
399.5,0.6341
400.0,0.6585
401.0,0.6675
402.0,0.7046
403.0,0.6697
404.0,0.6597
405.0,0.6599
406.0,0.6495
407.0,0.6393
408.0,0.6645
409.0,0.7115
410.0,0.6219
411.0,0.674
412.0,0.7242
413.0,0.7065
414.0,0.7154
415.0,0.7176
416.0,0.7305
417.0,0.7128
418.0,0.6998
419.0,0.7093
420.0,0.7064
421.0,0.7393
422.0,0.7029
423.0,0.6868
424.0,0.7266
425.0,0.7255
426.0,0.7071
427.0,0.694
428.0,0.6762
429.0,0.6408
430.0,0.561
431.0,0.5561
432.0,0.7183
433.0,0.7225
434.0,0.671
435.0,0.7009
436.0,0.79
437.0,0.7797
438.0,0.7102
439.0,0.7345
440.0,0.7581
441.0,0.7858
442.0,0.843
443.0,0.8211
444.0,0.8391
445.0,0.821
446.0,0.7839
447.0,0.8477
448.0,0.8609
449.0,0.8647
450.0,0.8891
451.0,0.9222
452.0,0.8887
453.0,0.836
454.0,0.873
455.0,0.8785
456.0,0.8995
457.0,0.9146
458.0,0.8833
459.0,0.8789
460.0,0.8813
461.0,0.9016
462.0,0.9088
463.0,0.9026
464.0,0.888
465.0,0.877
466.0,0.8857
467.0,0.8695
468.0,0.8798
469.0,0.8845
470.0,0.8563
471.0,0.8553
472.0,0.9012
473.0,0.8895
474.0,0.8907
475.0,0.8982
476.0,0.8712
477.0,0.8735
478.0,0.8978
479.0,0.8925
480.0,0.8944
481.0,0.9113
482.0,0.9163
483.0,0.9054
484.0,0.887
485.0,0.8452
486.0,0.739
487.0,0.7747
488.0,0.8499
489.0,0.8525
490.0,0.897
491.0,0.8816
492.0,0.8326
493.0,0.8599
494.0,0.8686
495.0,0.876
496.0,0.8815
497.0,0.8951
498.0,0.8533
499.0,0.8641
500.0,0.8389
501.0,0.8233
502.0,0.8115
503.0,0.8443
504.0,0.8221
505.0,0.8522
506.0,0.8797
507.0,0.8372
508.0,0.8113
509.0,0.8343
510.0,0.83
511.0,0.8524
512.0,0.8618
513.0,0.8157
514.0,0.8102
515.0,0.8021
516.0,0.8002
517.0,0.711
518.0,0.7475
519.0,0.784
520.0,0.8125
521.0,0.8202
522.0,0.8209
523.0,0.8061
524.0,0.8348
525.0,0.8445
526.0,0.8066
527.0,0.7599
528.0,0.8036
529.0,0.847
530.0,0.8347
531.0,0.847
532.0,0.8179
533.0,0.794
534.0,0.8175
535.0,0.8354
536.0,0.8432
537.0,0.81
538.0,0.8244
539.0,0.8174
540.0,0.7837
541.0,0.7886
542.0,0.8132
543.0,0.8049
544.0,0.8186
545.0,0.8161
546.0,0.8195
547.0,0.8193
548.0,0.8096
549.0,0.8121
550.0,0.8218
551.0,0.8119
552.0,0.8175
553.0,0.8029
554.0,0.8221
555.0,0.8236
556.0,0.8129
557.0,0.7876
558.0,0.7815
559.0,0.7668
560.0,0.7763
561.0,0.7862
562.0,0.7804
563.0,0.8016
564.0,0.7796
565.0,0.7727
566.0,0.7613
567.0,0.7755
568.0,0.7682
569.0,0.7491
570.0,0.749
571.0,0.7447
572.0,0.762
573.0,0.7701
574.0,0.7675
575.0,0.753
576.0,0.7461
577.0,0.7543
578.0,0.7433
579.0,0.7466
580.0,0.7614
581.0,0.7658
582.0,0.7807
583.0,0.7829
584.0,0.7899
585.0,0.7708
586.0,0.7549
587.0,0.7712
588.0,0.7514
589.0,0.6637
590.0,0.6942
591.0,0.7359
592.0,0.7258
593.0,0.7375
594.0,0.732
595.0,0.7132
596.0,0.743
597.0,0.7345
598.0,0.7332
599.0,0.734
600.0,0.7356
601.0,0.7299
602.0,0.7249
603.0,0.7371
604.0,0.7494
605.0,0.7456
606.0,0.7427
607.0,0.7503
608.0,0.7422
609.0,0.7436
610.0,0.7385
611.0,0.7424
612.0,0.7404
613.0,0.7311
614.0,0.7213
615.0,0.7372
616.0,0.713
617.0,0.7116
618.0,0.7391
619.0,0.7317
620.0,0.7363
621.0,0.7369
622.0,0.7281
623.0,0.7169
624.0,0.7047
625.0,0.7032
626.0,0.7135
627.0,0.7211
628.0,0.6688
629.0,0.7025
630.0,0.6861
631.0,0.7032
632.0,0.6951
633.0,0.7169
634.0,0.7104
635.0,0.7217
636.0,0.7125
637.0,0.7244
638.0,0.7317
639.0,0.7237
640.0,0.7169
641.0,0.7166
642.0,0.7135
643.0,0.7231
644.0,0.721
645.0,0.722
646.0,0.7046
647.0,0.695
648.0,0.6956
649.0,0.682
650.0,0.6869
651.0,0.717
652.0,0.6854
653.0,0.7076
654.0,0.6999
655.0,0.6729
656.0,0.597
657.0,0.6132
658.0,0.6877
659.0,0.6928
660.0,0.6958
661.0,0.7008
662.0,0.7019
663.0,0.6881
664.0,0.6967
665.0,0.6977
666.0,0.6984
667.0,0.6979
668.0,0.6984
669.0,0.7093
670.0,0.7063
671.0,0.7062
672.0,0.7003
673.0,0.7109
674.0,0.7083
675.0,0.7019
676.0,0.7068
677.0,0.6999
678.0,0.7019
679.0,0.6906
680.0,0.6962
681.0,0.6916
682.0,0.6908
683.0,0.6895
684.0,0.686
685.0,0.692
686.0,0.6878
687.0,0.4364
688.0,0.5209
689.0,0.5231
690.0,0.5519
691.0,0.5846
692.0,0.6088
693.0,0.6036
694.0,0.5986
695.0,0.6259
696.0,0.6268
697.0,0.6683
698.0,0.6578
699.0,0.6401
700.0,0.6323
701.0,0.6252
702.0,0.6303
703.0,0.6315
704.0,0.6529
705.0,0.6539
706.0,0.6538
707.0,0.6545
708.0,0.6559
709.0,0.6576
710.0,0.6571
711.0,0.6565
712.0,0.6549
713.0,0.648
714.0,0.6505
715.0,0.6292
716.0,0.6293
717.0,0.5384
718.0,0.4935
719.0,0.4514
720.0,0.4722
721.0,0.5257
722.0,0.6063
723.0,0.5619
724.0,0.5034
725.0,0.4943
726.0,0.5179
727.0,0.5271
728.0,0.4927
729.0,0.5138
730.0,0.5435
731.0,0.5193
732.0,0.5583
733.0,0.5936
734.0,0.6084
735.0,0.5954
736.0,0.5947
737.0,0.597
738.0,0.608
739.0,0.596
740.0,0.6121
741.0,0.6064
742.0,0.6073
743.0,0.6229
744.0,0.6213
745.0,0.6216
746.0,0.6244
747.0,0.6259
748.0,0.6246
749.0,0.6175
750.0,0.6171
751.0,0.6109
752.0,0.6135
753.0,0.6166
754.0,0.618
755.0,0.6145
756.0,0.6143
757.0,0.6152
758.0,0.6075
759.0,0.594
760.0,0.08044
761.0,0.03914
762.0,0.2818
763.0,0.1293
764.0,0.2042
765.0,0.2817
766.0,0.3561
767.0,0.4601
768.0,0.5399
769.0,0.5533
770.0,0.5744
771.0,0.58
772.0,0.5816
773.0,0.5857
774.0,0.583
775.0,0.5786
776.0,0.5856
777.0,0.5779
778.0,0.5744
779.0,0.5749
780.0,0.5717
781.0,0.5723
782.0,0.5759
783.0,0.5659
784.0,0.5687
785.0,0.5644
786.0,0.5705
787.0,0.5596
788.0,0.5522
789.0,0.5519
790.0,0.536
791.0,0.5419
792.0,0.5381
793.0,0.5292
794.0,0.5396
795.0,0.5484
796.0,0.5297
797.0,0.5303
798.0,0.5475
799.0,0.5437
800.0,0.5338
801.0,0.5317
802.0,0.5302
803.0,0.526
804.0,0.5269
805.0,0.5257
806.0,0.5414
807.0,0.5346
808.0,0.5352
809.0,0.5245
810.0,0.5198
811.0,0.5195
812.0,0.5034
813.0,0.4922
814.0,0.4292
815.0,0.4267
816.0,0.3967
817.0,0.4044
818.0,0.3883
819.0,0.4375
820.0,0.4108
821.0,0.4849
822.0,0.4703
823.0,0.3123
824.0,0.4549
825.0,0.4764
826.0,0.4568
827.0,0.4836
828.0,0.4056
829.0,0.4543
830.0,0.4479
831.0,0.4496
832.0,0.435
833.0,0.4651
834.0,0.4471
835.0,0.4944
836.0,0.4712
837.0,0.496
838.0,0.4795
839.0,0.4887
840.0,0.4997
841.0,0.4921
842.0,0.4939
843.0,0.4944
844.0,0.4871
845.0,0.5041
846.0,0.502
847.0,0.4929
848.0,0.4895
849.0,0.4756
850.0,0.4557
851.0,0.4821
852.0,0.4789
853.0,0.4612
854.0,0.398
855.0,0.4376
856.0,0.4781
857.0,0.489
858.0,0.4852
859.0,0.4858
860.0,0.4868
861.0,0.4841
862.0,0.4918
863.0,0.5034
864.0,0.4782
865.0,0.4741
866.0,0.4263
867.0,0.4449
868.0,0.4841
869.0,0.4741
870.0,0.4876
871.0,0.481
872.0,0.4793
873.0,0.4783
874.0,0.4726
875.0,0.463
876.0,0.4678
877.0,0.4726
878.0,0.4777
879.0,0.4703
880.0,0.4603
881.0,0.4532
882.0,0.4629
883.0,0.4645
884.0,0.4623
885.0,0.4658
886.0,0.4433
887.0,0.4485
888.0,0.4548
889.0,0.4606
890.0,0.456
891.0,0.4556
892.0,0.4415
893.0,0.4267
894.0,0.4097
895.0,0.3845
896.0,0.3613
897.0,0.3071
898.0,0.3369
899.0,0.2525
900.0,0.347
901.0,0.2647
902.0,0.3157
903.0,0.3171
904.0,0.4066
905.0,0.3916
906.0,0.3656
907.0,0.292
908.0,0.2986
909.0,0.3257
910.0,0.2838
911.0,0.3053
912.0,0.3199
913.0,0.2879
914.0,0.2862
915.0,0.3103
916.0,0.2617
917.0,0.3365
918.0,0.2681
919.0,0.3439
920.0,0.35
921.0,0.3642
922.0,0.3225
923.0,0.3521
924.0,0.3301
925.0,0.323
926.0,0.3262
927.0,0.3683
928.0,0.2613
929.0,0.2361
930.0,0.1817
931.0,0.1726
932.0,0.1203
933.0,0.09578
934.0,0.04835
935.0,0.09966
936.0,0.05954
937.0,0.06009
938.0,0.07493
939.0,0.1672
940.0,0.204
941.0,0.1501
942.0,0.1761
943.0,0.1128
944.0,0.1217
945.0,0.1556
946.0,0.07512
947.0,0.1552
948.0,0.1135
949.0,0.2118
950.0,0.05285
951.0,0.2092
952.0,0.1071
953.0,0.1419
954.0,0.1779
955.0,0.1439
956.0,0.1424
957.0,0.1068
958.0,0.2069
959.0,0.1599
960.0,0.1792
961.0,0.2047
962.0,0.1933
963.0,0.226
964.0,0.206
965.0,0.2253
966.0,0.2247
967.0,0.2234
968.0,0.3108
969.0,0.3234
970.0,0.2957
971.0,0.3434
972.0,0.3275
973.0,0.2801
974.0,0.2652
975.0,0.2773
976.0,0.2605
977.0,0.3019
978.0,0.2846
979.0,0.2996
980.0,0.2808
981.0,0.3416
982.0,0.3248
983.0,0.3108
984.0,0.3541
985.0,0.3236
986.0,0.3616
987.0,0.353
988.0,0.3525
989.0,0.3614
990.0,0.3503
991.0,0.3623
992.0,0.3645
993.0,0.3549
994.0,0.3646
995.0,0.3643
996.0,0.3625
997.0,0.3631
998.0,0.3613
999.0,0.3601
1000.0,0.3572
1001.0,0.3621
1002.0,0.3507
1003.0,0.3556
1004.0,0.3465
1005.0,0.3343
1006.0,0.3471
1007.0,0.3546
1008.0,0.3524
1009.0,0.3503
1010.0,0.3486
1011.0,0.3529
1012.0,0.3495
1013.0,0.3521
1014.0,0.3496
1015.0,0.3473
1016.0,0.3457
1017.0,0.3465
1018.0,0.3454
1019.0,0.3374
1020.0,0.3434
1021.0,0.3431
1022.0,0.3402
1023.0,0.3438
1024.0,0.3387
1025.0,0.3437
1026.0,0.3421
1027.0,0.3414
1028.0,0.3406
1029.0,0.3365
1030.0,0.339
1031.0,0.3376
1032.0,0.3367
1033.0,0.3316
1034.0,0.3316
1035.0,0.3327
1036.0,0.3343
1037.0,0.3289
1038.0,0.3303
1039.0,0.3301
1040.0,0.3288
1041.0,0.33
1042.0,0.3277
1043.0,0.3267
1044.0,0.3278
1045.0,0.3233
1046.0,0.3197
1047.0,0.3225
1048.0,0.3242
1049.0,0.323
1050.0,0.3215
1051.0,0.321
1052.0,0.3196
1053.0,0.317
1054.0,0.3176
1055.0,0.3177
1056.0,0.3165
1057.0,0.3155
1058.0,0.3076
1059.0,0.3079
1060.0,0.3074
1061.0,0.3069
1062.0,0.3085
1063.0,0.3053
1064.0,0.309
1065.0,0.3065
1066.0,0.3007
1067.0,0.3045
1068.0,0.2977
1069.0,0.2886
1070.0,0.2983
1071.0,0.3034
1072.0,0.2995
1073.0,0.2953
1074.0,0.3035
1075.0,0.2867
1076.0,0.3031
1077.0,0.2969
1078.0,0.2909
1079.0,0.2985
1080.0,0.2923
1081.0,0.2822
1082.0,0.288
1083.0,0.2892
1084.0,0.2811
1085.0,0.2931
1086.0,0.2653
1087.0,0.2754
1088.0,0.2886
1089.0,0.2784
1090.0,0.2714
1091.0,0.2873
1092.0,0.2869
1093.0,0.2392
1094.0,0.262
1095.0,0.2496
1096.0,0.2378
1097.0,0.2803
1098.0,0.2336
1099.0,0.2443
1100.0,0.2254
1101.0,0.2288
1102.0,0.2174
1103.0,0.2145
1104.0,0.2148
1105.0,0.2384
1106.0,0.1756
1107.0,0.2251
1108.0,0.1867
1109.0,0.1879
1110.0,0.2225
1111.0,0.1455
1112.0,0.1867
1113.0,0.1134
1114.0,0.1272
1115.0,0.1052
1116.0,0.08081
1117.0,0.02643
1118.0,0.08895
1119.0,0.0414
1120.0,0.05186
1121.0,0.07044
1122.0,0.02733
1123.0,0.04698
1124.0,0.03962
1125.0,0.05236
1126.0,0.01597
1127.0,0.05928
1128.0,0.03296
1129.0,0.03529
1130.0,0.0224
1131.0,0.1187
1132.0,0.09191
1133.0,0.05486
1134.0,0.01226
1135.0,0.004704
1136.0,0.04458
1137.0,0.1154
1138.0,0.08065
1139.0,0.1271
1140.0,0.1036
1141.0,0.0767
1142.0,0.08958
1143.0,0.13
1144.0,0.04224
1145.0,0.05296
1146.0,0.05708
1147.0,0.01778
1148.0,0.1124
1149.0,0.08772
1150.0,0.04584
1151.0,0.07999
1152.0,0.1008
1153.0,0.1001
1154.0,0.05111
1155.0,0.1324
1156.0,0.1179
1157.0,0.1346
1158.0,0.1331
1159.0,0.1452
1160.0,0.1224
1161.0,0.1545
1162.0,0.155
1163.0,0.2154
1164.0,0.1825
1165.0,0.1701
1166.0,0.1705
1167.0,0.1868
1168.0,0.1883
1169.0,0.1935
1170.0,0.2121
1171.0,0.2066
1172.0,0.2114
1173.0,0.2116
1174.0,0.1469
1175.0,0.2076
1176.0,0.2304
1177.0,0.2197
1178.0,0.1619
1179.0,0.2323
1180.0,0.205
1181.0,0.2117
1182.0,0.1427
1183.0,0.209
1184.0,0.1947
1185.0,0.1869
1186.0,0.2249
1187.0,0.2132
1188.0,0.1447
1189.0,0.1984
1190.0,0.2199
1191.0,0.2069
1192.0,0.2232
1193.0,0.2132
1194.0,0.2202
1195.0,0.207
1196.0,0.1986
1197.0,0.221
1198.0,0.2014
1199.0,0.1685
1200.0,0.2105
1201.0,0.202
1202.0,0.2016
1203.0,0.1995
1204.0,0.1732
1205.0,0.207
1206.0,0.2301
1207.0,0.2007
1208.0,0.1983
1209.0,0.2026
1210.0,0.2117
1211.0,0.2006
1212.0,0.1969
1213.0,0.2219
1214.0,0.2022
1215.0,0.1981
1216.0,0.2213
1217.0,0.2149
1218.0,0.2195
1219.0,0.2165
1220.0,0.2197
1221.0,0.2222
1222.0,0.2162
1223.0,0.2139
1224.0,0.2122
1225.0,0.2207
1226.0,0.2226
1227.0,0.204
1228.0,0.224
1229.0,0.2226
1230.0,0.2186
1231.0,0.2256
1232.0,0.2243
1233.0,0.2154
1234.0,0.2257
1235.0,0.2241
1236.0,0.2258
1237.0,0.2222
1238.0,0.2251
1239.0,0.2222
1240.0,0.2231
1241.0,0.2217
1242.0,0.2215
1243.0,0.2197
1244.0,0.2212
1245.0,0.2222
1246.0,0.2209
1247.0,0.22
1248.0,0.2197
1249.0,0.2205
1250.0,0.2191
1251.0,0.2161
1252.0,0.2164
1253.0,0.2142
1254.0,0.2118
1255.0,0.216
1256.0,0.2093
1257.0,0.208
1258.0,0.2124
1259.0,0.2036
1260.0,0.2048
1261.0,0.1919
1262.0,0.1854
1263.0,0.1858
1264.0,0.1698
1265.0,0.1846
1266.0,0.1766
1267.0,0.1804
1268.0,0.17
1269.0,0.09848
1270.0,0.1795
1271.0,0.1915
1272.0,0.1922
1273.0,0.19
1274.0,0.1909
1275.0,0.1939
1276.0,0.196
1277.0,0.1977
1278.0,0.202
1279.0,0.2002
1280.0,0.1977
1281.0,0.1889
1282.0,0.1824
1283.0,0.1964
1284.0,0.201
1285.0,0.2024
1286.0,0.2054
1287.0,0.2018
1288.0,0.2018
1289.0,0.1946
1290.0,0.2001
1291.0,0.2031
1292.0,0.1892
1293.0,0.1987
1294.0,0.1972
1295.0,0.1958
1296.0,0.186
1297.0,0.1751
1298.0,0.1901
1299.0,0.1991
1300.0,0.1658
1301.0,0.1715
1302.0,0.1895
1303.0,0.164
1304.0,0.1373
1305.0,0.1855
1306.0,0.1853
1307.0,0.1412
1308.0,0.1647
1309.0,0.1836
1310.0,0.1383
1311.0,0.1573
1312.0,0.1526
1313.0,0.1492
1314.0,0.1326
1315.0,0.1303
1316.0,0.1543
1317.0,0.1459
1318.0,0.1596
1319.0,0.1216
1320.0,0.1185
1321.0,0.1391
1322.0,0.14
1323.0,0.1027
1324.0,0.1194
1325.0,0.1519
1326.0,0.1287
1327.0,0.1223
1328.0,0.1046
1329.0,0.07622
1330.0,0.1004
1331.0,0.05787
1332.0,0.06067
1333.0,0.08503
1334.0,0.07351
1335.0,0.1022
1336.0,0.07938
1337.0,0.06951
1338.0,0.07518
1339.0,0.07525
1340.0,0.07396
1341.0,0.07042
1342.0,0.07414
1343.0,0.04679
1344.0,0.02828
1345.0,0.04084
1346.0,0.01825
1347.0,0.01821
1348.0,0.0009315
1349.0,0.003572
1350.0,0.003887
1351.0,0.0007611
1352.0,0.0001603
1353.0,6.437e-06
1354.0,2.621e-05
1355.0,1.259e-07
1356.0,3.101e-06
1357.0,4.743e-06
1358.0,1.523e-07
1359.0,1.288e-08
1360.0,6.047e-08
1361.0,2.965e-11
1362.0,5.856e-14
1363.0,7.103e-08
1364.0,2.94e-08
1365.0,1.308e-14
1366.0,3.449e-07
1367.0,1.546e-07
1368.0,4.402e-17
1369.0,1.082e-08
1370.0,4.511e-09
1371.0,2.113e-10
1372.0,8.562e-08
1373.0,2.247e-06
1374.0,1.254e-05
1375.0,2.233e-05
1376.0,2.385e-05
1377.0,1.052e-05
1378.0,0.0001102
1379.0,4.413e-06
1380.0,5.64e-06
1381.0,1.339e-07
1382.0,7.351e-08
1383.0,9.658e-10
1384.0,1.14e-08
1385.0,8.469e-08
1386.0,5.802e-08
1387.0,1.148e-05
1388.0,2.329e-07
1389.0,4.827e-05
1390.0,4.117e-05
1391.0,2.662e-05
1392.0,1.652e-06
1393.0,9.652e-06
1394.0,3.66e-06
1395.0,2.226e-08
1396.0,4.785e-11
1397.0,3.578e-06
1398.0,0.0001208
1399.0,7.734e-05
1400.0,1.654e-11
1401.0,9.322e-11
1402.0,0.0002819
1403.0,0.0003361
1404.0,0.0001
1405.0,9.379e-09
1406.0,0.0002378
1407.0,2.282e-05
1408.0,0.0001979
1409.0,5.713e-05
1410.0,5.119e-05
1411.0,0.0002988
1412.0,0.0004336
1413.0,0.005492
1414.0,4.124e-05
1415.0,1.848e-05
1416.0,0.0104
1417.0,0.002725
1418.0,0.002997
1419.0,0.0004492
1420.0,0.001821
1421.0,0.001999
1422.0,0.01365
1423.0,0.002544
1424.0,0.004896
1425.0,0.00697
1426.0,0.008453
1427.0,0.01675
1428.0,0.0008554
1429.0,0.0119
1430.0,0.02192
1431.0,0.0245
1432.0,0.000666
1433.0,0.01502
1434.0,0.007366
1435.0,0.006441
1436.0,0.01383
1437.0,0.01064
