interpolation:linear
wavelength,value
280.0,9.564e-21
280.5,2.878e-19
281.0,1.499e-18
281.5,4.658e-19
282.0,1.494e-18
282.5,3.97e-18
283.0,1.283e-17
283.5,2.097e-17
284.0,3.324e-16
284.5,9.468e-16
285.0,1.847e-15
285.5,9.789e-15
286.0,3.995e-14
286.5,1.804e-13
287.0,5.153e-13
287.5,1.959e-12
288.0,5.18e-12
288.5,1.863e-11
289.0,5.66e-11
289.5,1.907e-10
290.0,5.701e-10
290.5,1.23e-09
291.0,2.805e-09
291.5,8.803e-09
292.0,2.134e-08
292.5,3.372e-08
293.0,8.443e-08
293.5,2.563e-07
294.0,4.727e-07
294.5,6.314e-07
295.0,1.263e-06
295.5,3.453e-06
296.0,6.838e-06
296.5,9.823e-06
297.0,1.36e-05
297.5,3.772e-05
298.0,6.125e-05
298.5,6.31e-05
299.0,0.0001425
299.5,0.0002465
300.0,0.0002781
300.5,0.0004141
301.0,0.0007862
301.5,0.001319
302.0,0.001164
302.5,0.00225
303.0,0.003983
303.5,0.004965
304.0,0.004629
304.5,0.006763
305.0,0.009947
305.5,0.01117
306.0,0.01073
306.5,0.0132
307.0,0.01903
307.5,0.02462
308.0,0.02589
308.5,0.03016
309.0,0.02943
309.5,0.03304
310.0,0.0329
310.5,0.05305
311.0,0.06609
311.5,0.0636
312.0,0.06255
312.5,0.07528
313.0,0.08118
313.5,0.07927
314.0,0.09778
314.5,0.08515
315.0,0.1115
315.5,0.09415
316.0,0.08102
316.5,0.1149
317.0,0.1426
317.5,0.149
318.0,0.1152
318.5,0.1406
319.0,0.1654
319.5,0.1368
320.0,0.1656
320.5,0.2037
321.0,0.1785
321.5,0.1708
322.0,0.1853
322.5,0.161
323.0,0.1586
323.5,0.1929
324.0,0.2247
324.5,0.2292
325.0,0.1992
325.5,0.2539
326.0,0.3096
326.5,0.3081
327.0,0.3078
327.5,0.2982
328.0,0.2677
328.5,0.2786
329.0,0.331
329.5,0.3748
330.0,0.3788
330.5,0.3051
331.0,0.3115
331.5,0.3152
332.0,0.3383
332.5,0.3336
333.0,0.3332
333.5,0.3031
334.0,0.3108
334.5,0.3567
335.0,0.3341
335.5,0.3902
336.0,0.27
336.5,0.3167
337.0,0.2605
337.5,0.3243
338.0,0.3152
338.5,0.3638
339.0,0.36
339.5,0.3464
340.0,0.4071
340.5,0.3669
341.0,0.3578
341.5,0.3285
342.0,0.3926
342.5,0.3673
343.0,0.4041
343.5,0.3805
344.0,0.2812
344.5,0.2841
345.0,0.3759
345.5,0.3838
346.0,0.3262
346.5,0.3694
347.0,0.3966
347.5,0.3207
348.0,0.3656
348.5,0.3655
349.0,0.3391
349.5,0.3357
350.0,0.4153
350.5,0.4381
351.0,0.3914
351.5,0.3805
352.0,0.4087
352.5,0.3189
353.0,0.4018
353.5,0.4296
354.0,0.446
354.5,0.4524
355.0,0.4509
355.5,0.4074
356.0,0.4263
356.5,0.364
357.0,0.3008
357.5,0.3683
358.0,0.2919
358.5,0.2495
359.0,0.349
359.5,0.4448
360.0,0.4716
360.5,0.3769
361.0,0.3437
361.5,0.3957
362.0,0.3423
362.5,0.4737
363.0,0.4255
363.5,0.392
364.0,0.4795
364.5,0.4099
365.0,0.4175
365.5,0.5241
366.0,0.5554
366.5,0.5219
367.0,0.5083
367.5,0.5275
368.0,0.4617
368.5,0.466
369.0,0.5033
369.5,0.5365
370.0,0.572
370.5,0.444
371.0,0.4745
371.5,0.5937
372.0,0.3941
372.5,0.4726
373.0,0.4808
373.5,0.3129
374.0,0.4547
374.5,0.3766
375.0,0.3661
375.5,0.5467
376.0,0.4532
376.5,0.4697
377.0,0.4974
377.5,0.582
378.0,0.631
378.5,0.5964
379.0,0.4923
379.5,0.4497
380.0,0.4676
380.5,0.5665
381.0,0.5678
381.5,0.4501
382.0,0.3998
382.5,0.3409
383.0,0.3156
383.5,0.304
384.0,0.3354
384.5,0.4935
385.0,0.4894
385.5,0.4559
386.0,0.3905
386.5,0.513
387.0,0.4263
387.5,0.4789
388.0,0.4422
388.5,0.4372
389.0,0.472
389.5,0.5718
390.0,0.5739
390.5,0.5282
391.0,0.6219
391.5,0.6344
392.0,0.5344
392.5,0.4785
393.0,0.2663
393.5,0.1936
394.0,0.394
394.5,0.5009
395.0,0.6113
395.5,0.6211
396.0,0.5386
396.5,0.3149
397.0,0.2363
397.5,0.4807
398.0,0.6732
398.5,0.6959
399.0,0.7537
399.5,0.7513
400.0,0.7802
401.0,0.7919
402.0,0.8356
403.0,0.794
404.0,0.7819
405.0,0.7819
406.0,0.7694
407.0,0.7571
408.0,0.7868
409.0,0.8422
410.0,0.7361
411.0,0.7974
412.0,0.8566
413.0,0.8355
414.0,0.8458
415.0,0.8482
416.0,0.8632
417.0,0.8421
418.0,0.8266
419.0,0.8376
420.0,0.834
421.0,0.8726
422.0,0.8295
423.0,0.8104
424.0,0.8572
425.0,0.8557
426.0,0.8336
427.0,0.8181
428.0,0.7971
429.0,0.755
430.0,0.6608
431.0,0.6551
432.0,0.8459
433.0,0.8506
434.0,0.7899
435.0,0.825
436.0,0.9297
437.0,0.9172
438.0,0.8353
439.0,0.864
440.0,0.8916
441.0,0.9239
442.0,0.9909
443.0,0.9653
444.0,0.9863
445.0,0.965
446.0,0.9209
447.0,0.9956
448.0,1.011
449.0,1.015
450.0,1.044
451.0,1.082
452.0,1.043
453.0,0.9809
454.0,1.024
455.0,1.03
456.0,1.055
457.0,1.072
458.0,1.036
459.0,1.031
460.0,1.033
461.0,1.057
462.0,1.065
463.0,1.058
464.0,1.041
465.0,1.027
466.0,1.037
467.0,1.018
468.0,1.03
469.0,1.036
470.0,1.003
471.0,1.002
472.0,1.055
473.0,1.042
474.0,1.043
475.0,1.052
476.0,1.021
477.0,1.024
478.0,1.052
479.0,1.046
480.0,1.048
481.0,1.067
482.0,1.073
483.0,1.06
484.0,1.038
485.0,0.9889
486.0,0.8644
487.0,0.9059
488.0,0.9938
489.0,0.997
490.0,1.049
491.0,1.031
492.0,0.9733
493.0,1.005
494.0,1.015
495.0,1.024
496.0,1.03
497.0,1.046
498.0,0.9973
499.0,1.01
500.0,0.9808
501.0,0.9628
502.0,0.9494
503.0,0.9882
504.0,0.9636
505.0,0.9977
506.0,1.03
507.0,0.9801
508.0,0.9494
509.0,0.9759
510.0,0.9707
511.0,0.9966
512.0,1.007
513.0,0.9535
514.0,0.9469
515.0,0.9375
516.0,0.9352
517.0,0.831
518.0,0.8736
519.0,0.9164
520.0,0.9497
521.0,0.9587
522.0,0.9596
523.0,0.9424
524.0,0.9762
525.0,0.9878
526.0,0.9436
527.0,0.8893
528.0,0.9406
529.0,0.9915
530.0,0.9773
531.0,0.9918
532.0,0.9578
533.0,0.9297
534.0,0.9572
535.0,0.978
536.0,0.9869
537.0,0.948
538.0,0.9647
539.0,0.9566
540.0,0.9171
541.0,0.9233
542.0,0.9523
543.0,0.9422
544.0,0.9586
545.0,0.9556
546.0,0.9599
547.0,0.9594
548.0,0.9479
549.0,0.9507
550.0,0.962
551.0,0.9504
552.0,0.957
553.0,0.9398
554.0,0.9624
555.0,0.9643
556.0,0.9518
557.0,0.9222
558.0,0.9153
559.0,0.8983
560.0,0.9096
561.0,0.9214
562.0,0.9148
563.0,0.9399
564.0,0.9143
565.0,0.9065
566.0,0.8932
567.0,0.9102
568.0,0.9023
569.0,0.8811
570.0,0.8808
571.0,0.8755
572.0,0.8967
573.0,0.9063
574.0,0.9035
575.0,0.8867
576.0,0.8786
577.0,0.8881
578.0,0.8747
579.0,0.878
580.0,0.8945
581.0,0.8989
582.0,0.9158
583.0,0.9179
584.0,0.9258
585.0,0.9032
586.0,0.8846
587.0,0.9041
588.0,0.8825
589.0,0.7826
590.0,0.8184
591.0,0.8655
592.0,0.8549
593.0,0.8672
594.0,0.8613
595.0,0.8403
596.0,0.8728
597.0,0.8635
598.0,0.8611
599.0,0.8618
600.0,0.8629
601.0,0.8557
602.0,0.8499
603.0,0.8639
604.0,0.8782
605.0,0.8736
606.0,0.87
607.0,0.8785
608.0,0.8687
609.0,0.8702
610.0,0.8639
611.0,0.8684
612.0,0.8658
613.0,0.8549
614.0,0.8432
615.0,0.8615
616.0,0.833
617.0,0.8313
618.0,0.8633
619.0,0.8545
620.0,0.8599
621.0,0.8608
622.0,0.8508
623.0,0.8379
624.0,0.8235
625.0,0.8216
626.0,0.8338
627.0,0.8432
628.0,0.7891
629.0,0.8238
630.0,0.8049
631.0,0.8225
632.0,0.8126
633.0,0.8371
634.0,0.8288
635.0,0.8416
636.0,0.8304
637.0,0.8439
638.0,0.8519
639.0,0.8423
640.0,0.8341
641.0,0.8335
642.0,0.8296
643.0,0.8408
644.0,0.838
645.0,0.8394
646.0,0.82
647.0,0.8107
648.0,0.8115
649.0,0.7958
650.0,0.7991
651.0,0.8336
652.0,0.7995
653.0,0.8226
654.0,0.8134
655.0,0.7834
656.0,0.6941
657.0,0.7127
658.0,0.7986
659.0,0.8042
660.0,0.8076
661.0,0.8132
662.0,0.815
663.0,0.7988
664.0,0.8081
665.0,0.8087
666.0,0.8093
667.0,0.8084
668.0,0.8087
669.0,0.8212
670.0,0.8176
671.0,0.8174
672.0,0.8104
673.0,0.8226
674.0,0.8195
675.0,0.812
676.0,0.8176
677.0,0.8094
678.0,0.8117
679.0,0.7986
680.0,0.805
681.0,0.7997
682.0,0.7986
683.0,0.7971
684.0,0.7931
685.0,0.7999
686.0,0.7952
687.0,0.5344
688.0,0.6232
689.0,0.6254
690.0,0.6549
691.0,0.6881
692.0,0.7122
693.0,0.7065
694.0,0.7006
695.0,0.7288
696.0,0.7298
697.0,0.7735
698.0,0.7615
699.0,0.744
700.0,0.735
701.0,0.7277
702.0,0.7325
703.0,0.7339
704.0,0.757
705.0,0.7581
706.0,0.7573
707.0,0.7578
708.0,0.7594
709.0,0.7603
710.0,0.7604
711.0,0.7593
712.0,0.7569
713.0,0.7493
714.0,0.7521
715.0,0.7287
716.0,0.7291
717.0,0.6348
718.0,0.5834
719.0,0.5346
720.0,0.5602
721.0,0.617
722.0,0.7043
723.0,0.6565
724.0,0.5923
725.0,0.5831
726.0,0.6103
727.0,0.6185
728.0,0.5818
729.0,0.6028
730.0,0.6378
731.0,0.6105
732.0,0.6521
733.0,0.6895
734.0,0.7056
735.0,0.6911
736.0,0.6902
737.0,0.693
738.0,0.7031
739.0,0.6893
740.0,0.707
741.0,0.6999
742.0,0.7005
743.0,0.7183
744.0,0.7162
745.0,0.7163
746.0,0.7195
747.0,0.7211
748.0,0.7196
749.0,0.7114
750.0,0.7109
751.0,0.7037
752.0,0.7067
753.0,0.7103
754.0,0.7119
755.0,0.7079
756.0,0.7076
757.0,0.7086
758.0,0.6998
759.0,0.6859
760.0,0.1191
761.0,0.06332
762.0,0.3561
763.0,0.1804
764.0,0.2691
765.0,0.3561
766.0,0.435
767.0,0.5467
768.0,0.6291
769.0,0.6419
770.0,0.6633
771.0,0.6685
772.0,0.6698
773.0,0.6745
774.0,0.6712
775.0,0.6661
776.0,0.6742
777.0,0.6653
778.0,0.6613
779.0,0.6618
780.0,0.6581
781.0,0.6588
782.0,0.6629
783.0,0.6514
784.0,0.6545
785.0,0.6496
786.0,0.6568
787.0,0.6456
788.0,0.6376
789.0,0.6374
790.0,0.6207
791.0,0.6258
792.0,0.6212
793.0,0.6112
794.0,0.6213
795.0,0.6319
796.0,0.6129
797.0,0.6136
798.0,0.6312
799.0,0.6272
800.0,0.6164
801.0,0.6146
802.0,0.6128
803.0,0.6082
804.0,0.609
805.0,0.607
806.0,0.6238
807.0,0.6163
808.0,0.6169
809.0,0.6054
810.0,0.6006
811.0,0.6015
812.0,0.5846
813.0,0.5726
814.0,0.5046
815.0,0.5015
816.0,0.4669
817.0,0.4753
818.0,0.4577
819.0,0.511
820.0,0.4815
821.0,0.5618
822.0,0.5459
823.0,0.3728
824.0,0.5304
825.0,0.5521
826.0,0.5315
827.0,0.5606
828.0,0.4761
829.0,0.5282
830.0,0.5214
831.0,0.5232
832.0,0.5073
833.0,0.5393
834.0,0.5204
835.0,0.5712
836.0,0.5471
837.0,0.5728
838.0,0.5551
839.0,0.5641
840.0,0.5764
841.0,0.5683
842.0,0.5694
843.0,0.569
844.0,0.5612
845.0,0.5801
846.0,0.5775
847.0,0.5667
848.0,0.5632
849.0,0.5472
850.0,0.5243
851.0,0.5551
852.0,0.5512
853.0,0.5306
854.0,0.4581
855.0,0.5033
856.0,0.55
857.0,0.5623
858.0,0.5581
859.0,0.5586
860.0,0.5596
861.0,0.5565
862.0,0.5653
863.0,0.5786
864.0,0.5497
865.0,0.5449
866.0,0.49
867.0,0.5113
868.0,0.5564
869.0,0.5449
870.0,0.5604
871.0,0.5528
872.0,0.5508
873.0,0.5497
874.0,0.5432
875.0,0.5321
876.0,0.5377
877.0,0.5431
878.0,0.549
879.0,0.5406
880.0,0.529
881.0,0.521
882.0,0.5323
883.0,0.534
884.0,0.5315
885.0,0.5356
886.0,0.5104
887.0,0.5158
888.0,0.5234
889.0,0.5294
890.0,0.5249
891.0,0.5241
892.0,0.5089
893.0,0.4929
894.0,0.4755
895.0,0.4492
896.0,0.4231
897.0,0.3632
898.0,0.3965
899.0,0.3013
900.0,0.4061
901.0,0.3158
902.0,0.371
903.0,0.3745
904.0,0.4719
905.0,0.4556
906.0,0.4263
907.0,0.3461
908.0,0.3529
909.0,0.3825
910.0,0.338
911.0,0.3604
912.0,0.3769
913.0,0.343
914.0,0.3401
915.0,0.3687
916.0,0.312
917.0,0.3963
918.0,0.3199
919.0,0.4036
920.0,0.408
921.0,0.4244
922.0,0.3791
923.0,0.4099
924.0,0.3885
925.0,0.38
926.0,0.3841
927.0,0.4304
928.0,0.3147
929.0,0.287
930.0,0.2249
931.0,0.2132
932.0,0.1528
933.0,0.1238
934.0,0.06703
935.0,0.127
936.0,0.07876
937.0,0.07976
938.0,0.09831
939.0,0.2065
940.0,0.2489
941.0,0.1872
942.0,0.2172
943.0,0.1422
944.0,0.1503
945.0,0.1931
946.0,0.09743
947.0,0.1938
948.0,0.1422
949.0,0.2603
950.0,0.07095
951.0,0.2564
952.0,0.1366
953.0,0.1772
954.0,0.2182
955.0,0.1793
956.0,0.1746
957.0,0.1367
958.0,0.2486
959.0,0.1965
960.0,0.2203
961.0,0.248
962.0,0.2346
963.0,0.2711
964.0,0.2481
965.0,0.2702
966.0,0.27
967.0,0.2688
968.0,0.3629
969.0,0.3788
970.0,0.3476
971.0,0.3989
972.0,0.3814
973.0,0.331
974.0,0.314
975.0,0.3263
976.0,0.3093
977.0,0.3531
978.0,0.335
979.0,0.3512
980.0,0.33
981.0,0.3966
982.0,0.3789
983.0,0.3635
984.0,0.4092
985.0,0.3774
986.0,0.4166
987.0,0.4082
988.0,0.4074
989.0,0.4155
990.0,0.405
991.0,0.4167
992.0,0.4192
993.0,0.4095
994.0,0.4191
995.0,0.4186
996.0,0.4167
997.0,0.4173
998.0,0.4153
999.0,0.4138
1000.0,0.4108
1001.0,0.4161
1002.0,0.4043
1003.0,0.4087
1004.0,0.3986
1005.0,0.3841
1006.0,0.3991
1007.0,0.4076
1008.0,0.4053
1009.0,0.4031
1010.0,0.4013
1011.0,0.4055
1012.0,0.4019
1013.0,0.4045
1014.0,0.4017
1015.0,0.399
1016.0,0.3972
1017.0,0.3982
1018.0,0.3968
1019.0,0.3882
1020.0,0.3947
1021.0,0.3941
1022.0,0.391
1023.0,0.3952
1024.0,0.3899
1025.0,0.3949
1026.0,0.3932
1027.0,0.3923
1028.0,0.3915
1029.0,0.3868
1030.0,0.3895
1031.0,0.388
1032.0,0.3868
1033.0,0.381
1034.0,0.381
1035.0,0.3822
1036.0,0.3842
1037.0,0.378
1038.0,0.3796
1039.0,0.3794
1040.0,0.3779
1041.0,0.3794
1042.0,0.3767
1043.0,0.3755
1044.0,0.3768
1045.0,0.3717
1046.0,0.3676
1047.0,0.3709
1048.0,0.3729
1049.0,0.3715
1050.0,0.3698
1051.0,0.3693
1052.0,0.3678
1053.0,0.3648
1054.0,0.3656
1055.0,0.3658
1056.0,0.3645
1057.0,0.3633
1058.0,0.3544
1059.0,0.3548
1060.0,0.3542
1061.0,0.3538
1062.0,0.3556
1063.0,0.3521
1064.0,0.3563
1065.0,0.3536
1066.0,0.3467
1067.0,0.3511
1068.0,0.3434
1069.0,0.3329
1070.0,0.3441
1071.0,0.3496
1072.0,0.3455
1073.0,0.3405
1074.0,0.3494
1075.0,0.3316
1076.0,0.3491
1077.0,0.3427
1078.0,0.3361
1079.0,0.3436
1080.0,0.3374
1081.0,0.3264
1082.0,0.332
1083.0,0.3331
1084.0,0.3255
1085.0,0.3382
1086.0,0.3081
1087.0,0.3184
1088.0,0.3326
1089.0,0.3221
1090.0,0.3148
1091.0,0.3315
1092.0,0.3307
1093.0,0.2794
1094.0,0.3025
1095.0,0.2913
1096.0,0.2786
1097.0,0.323
1098.0,0.2741
1099.0,0.2861
1100.0,0.2655
1101.0,0.269
1102.0,0.2567
1103.0,0.254
1104.0,0.2543
1105.0,0.2795
1106.0,0.2121
1107.0,0.2651
1108.0,0.2237
1109.0,0.2243
1110.0,0.2626
1111.0,0.1768
1112.0,0.2227
1113.0,0.1404
1114.0,0.157
1115.0,0.1301
1116.0,0.103
1117.0,0.03689
1118.0,0.1124
1119.0,0.05499
1120.0,0.06916
1121.0,0.09228
1122.0,0.03814
1123.0,0.06254
1124.0,0.05277
1125.0,0.06904
1126.0,0.02334
1127.0,0.07794
1128.0,0.04587
1129.0,0.04878
1130.0,0.03181
1131.0,0.1497
1132.0,0.1171
1133.0,0.07319
1134.0,0.01813
1135.0,0.006828
1136.0,0.0607
1137.0,0.1467
1138.0,0.1031
1139.0,0.1557
1140.0,0.1294
1141.0,0.09802
1142.0,0.1132
1143.0,0.1615
1144.0,0.05547
1145.0,0.07061
1146.0,0.07614
1147.0,0.02606
1148.0,0.1397
1149.0,0.111
1150.0,0.05975
1151.0,0.1023
1152.0,0.1266
1153.0,0.1239
1154.0,0.06833
1155.0,0.1624
1156.0,0.1459
1157.0,0.1642
1158.0,0.1625
1159.0,0.1757
1160.0,0.1497
1161.0,0.1852
1162.0,0.1861
1163.0,0.2525
1164.0,0.2162
1165.0,0.2036
1166.0,0.2024
1167.0,0.2207
1168.0,0.223
1169.0,0.2284
1170.0,0.2485
1171.0,0.2423
1172.0,0.2468
1173.0,0.248
1174.0,0.1766
1175.0,0.2424
1176.0,0.2666
1177.0,0.2558
1178.0,0.1918
1179.0,0.2688
1180.0,0.2397
1181.0,0.2474
1182.0,0.1704
1183.0,0.2436
1184.0,0.2282
1185.0,0.2202
1186.0,0.2612
1187.0,0.2488
1188.0,0.1733
1189.0,0.2318
1190.0,0.2553
1191.0,0.2424
1192.0,0.2589
1193.0,0.2481
1194.0,0.2557
1195.0,0.2418
1196.0,0.2329
1197.0,0.2558
1198.0,0.2341
1199.0,0.1991
1200.0,0.2449
1201.0,0.2362
1202.0,0.2349
1203.0,0.2329
1204.0,0.2037
1205.0,0.2403
1206.0,0.2655
1207.0,0.2343
1208.0,0.2306
1209.0,0.2353
1210.0,0.2451
1211.0,0.2335
1212.0,0.2307
1213.0,0.2567
1214.0,0.2362
1215.0,0.2317
1216.0,0.2559
1217.0,0.2492
1218.0,0.2539
1219.0,0.2507
1220.0,0.2541
1221.0,0.2566
1222.0,0.25
1223.0,0.2477
1224.0,0.2461
1225.0,0.255
1226.0,0.2567
1227.0,0.2369
1228.0,0.2579
1229.0,0.2567
1230.0,0.2523
1231.0,0.2595
1232.0,0.2579
1233.0,0.2491
1234.0,0.2592
1235.0,0.2576
1236.0,0.2595
1237.0,0.2559
1238.0,0.2586
1239.0,0.2553
1240.0,0.2562
1241.0,0.255
1242.0,0.2545
1243.0,0.2524
1244.0,0.2542
1245.0,0.2553
1246.0,0.2538
1247.0,0.2528
1248.0,0.2526
1249.0,0.2534
1250.0,0.2519
1251.0,0.2487
1252.0,0.2487
1253.0,0.2467
1254.0,0.2443
1255.0,0.2485
1256.0,0.2415
1257.0,0.2402
1258.0,0.2447
1259.0,0.2359
1260.0,0.2371
1261.0,0.2239
1262.0,0.2172
1263.0,0.2176
1264.0,0.2009
1265.0,0.2162
1266.0,0.2081
1267.0,0.2117
1268.0,0.2008
1269.0,0.1249
1270.0,0.211
1271.0,0.2231
1272.0,0.2238
1273.0,0.2215
1274.0,0.2222
1275.0,0.2254
1276.0,0.2275
1277.0,0.229
1278.0,0.2334
1279.0,0.2313
1280.0,0.2284
1281.0,0.2179
1282.0,0.2099
1283.0,0.2261
1284.0,0.2315
1285.0,0.233
1286.0,0.2362
1287.0,0.2325
1288.0,0.2325
1289.0,0.2252
1290.0,0.2304
1291.0,0.2336
1292.0,0.2196
1293.0,0.2291
1294.0,0.2275
1295.0,0.2264
1296.0,0.2162
1297.0,0.2046
1298.0,0.2201
1299.0,0.2294
1300.0,0.1943
1301.0,0.2002
1302.0,0.2194
1303.0,0.1917
1304.0,0.1636
1305.0,0.2149
1306.0,0.2149
1307.0,0.1671
1308.0,0.192
1309.0,0.2133
1310.0,0.1639
1311.0,0.1841
1312.0,0.1791
1313.0,0.1757
1314.0,0.1572
1315.0,0.1552
1316.0,0.1812
1317.0,0.1716
1318.0,0.1865
1319.0,0.1458
1320.0,0.1413
1321.0,0.1645
1322.0,0.1662
1323.0,0.1249
1324.0,0.143
1325.0,0.1786
1326.0,0.1532
1327.0,0.1461
1328.0,0.126
1329.0,0.09443
1330.0,0.123
1331.0,0.07397
1332.0,0.07649
1333.0,0.1065
1334.0,0.09038
1335.0,0.1245
1336.0,0.09828
1337.0,0.08681
1338.0,0.09395
1339.0,0.09358
1340.0,0.09111
1341.0,0.08875
1342.0,0.09324
1343.0,0.06267
1344.0,0.03756
1345.0,0.0542
1346.0,0.02659
1347.0,0.02698
1348.0,0.001711
1349.0,0.00619
1350.0,0.006461
1351.0,0.001539
1352.0,0.0004073
1353.0,2.037e-05
1354.0,7.116e-05
1355.0,5.506e-07
1356.0,9.937e-06
1357.0,1.515e-05
1358.0,6.533e-07
1359.0,7.992e-08
1360.0,2.958e-07
1361.0,3.099e-10
1362.0,8.261e-13
1363.0,3.972e-07
1364.0,1.642e-07
1365.0,2.803e-13
1366.0,1.752e-06
1367.0,7.214e-07
1368.0,2.028e-15
1369.0,6.13e-08
1370.0,2.987e-08
1371.0,1.67e-09
1372.0,3.971e-07
1373.0,8.2e-06
1374.0,3.871e-05
1375.0,7.036e-05
1376.0,6.409e-05
1377.0,2.926e-05
1378.0,0.0002888
1379.0,1.229e-05
1380.0,1.755e-05
1381.0,4.545e-07
1382.0,3.569e-07
1383.0,5.286e-09
1384.0,6.9e-08
1385.0,3.427e-07
1386.0,3.153e-07
1387.0,3.984e-05
1388.0,7.858e-07
1389.0,0.0001376
1390.0,0.0001184
1391.0,7.87e-05
1392.0,5.091e-06
1393.0,2.727e-05
1394.0,1.376e-05
1395.0,9.939e-08
1396.0,4.508e-10
1397.0,1.08e-05
1398.0,0.000324
1399.0,0.0002056
1400.0,1.915e-10
1401.0,8.166e-10
1402.0,0.0005865
1403.0,0.0007339
1404.0,0.0002232
1405.0,4.786e-08
1406.0,0.0005763
1407.0,5.119e-05
1408.0,0.0004721
1409.0,0.000156
1410.0,0.0001262
1411.0,0.000646
1412.0,0.0008789
1413.0,0.009324
1414.0,9.981e-05
1415.0,4.754e-05
1416.0,0.0157
1417.0,0.0046
1418.0,0.005214
1419.0,0.0008026
1420.0,0.003185
1421.0,0.003446
1422.0,0.02053
1423.0,0.003936
1424.0,0.007422
1425.0,0.01085
1426.0,0.01251
1427.0,0.02345
1428.0,0.001603
1429.0,0.01731
1430.0,0.0301
1431.0,0.03322
1432.0,0.001259
1433.0,0.02091
1434.0,0.01052
1435.0,0.01014
1436.0,0.02016
1437.0,0.01546
1438.0,0.006361
1439.0,0.02768
1440.0,0.02072
1441.0,0.01547
1442.0,0.01719
