interpolation:linear
wavelength,value
280.0,4.862e-23
280.5,1.6360000000000001e-21
281.0,8.867e-21
281.5,2.884e-19
282.0,4.936e-19
282.5,1.145e-18
283.0,3.527e-18
283.5,5.723e-18
284.0,9.363e-17
284.5,2.748e-16
285.0,7.165e-16
285.5,2.981e-15
286.0,1.165e-14
286.5,5.032e-14
287.0,1.422e-13
287.5,5.417e-13
288.0,1.723e-12
288.5,4.909e-12
289.0,1.266e-11
289.5,3.752e-11
290.0,1.035e-10
290.5,2.11e-10
291.0,4.534e-10
291.5,1.306e-09
292.0,2.678e-09
292.5,3.723e-09
293.0,7.902e-09
293.5,1.899e-08
294.0,2.96e-08
294.5,3.626e-08
295.0,6.095e-08
295.5,1.032e-07
296.0,1.932e-07
296.5,2.618e-07
297.0,3.444e-07
297.5,8.836e-07
298.0,1.336e-06
298.5,1.299e-06
299.0,2.763e-06
299.5,4.293e-06
300.0,4.537e-06
300.5,6.294e-06
301.0,1.059e-05
301.5,1.573e-05
302.0,1.295e-05
302.5,2.476e-05
303.0,4.3e-05
303.5,5.35e-05
304.0,5.101e-05
304.5,7.949e-05
305.0,0.0001291
305.5,0.0001551
306.0,0.000153
306.5,0.0001968
307.0,0.0003155
307.5,0.000454
308.0,0.0004856
308.5,0.0005972
309.0,0.0006547
309.5,0.0009161
310.0,0.00101
310.5,0.001713
311.0,0.002321
311.5,0.002315
312.0,0.002734
312.5,0.003716
313.0,0.004271
313.5,0.003927
314.0,0.00561
314.5,0.005943
315.0,0.008059
315.5,0.006179
316.0,0.006236
316.5,0.01015
317.0,0.01257
317.5,0.01261
318.0,0.01072
318.5,0.01569
319.0,0.02024
319.5,0.01441
320.0,0.01706
320.5,0.02528
321.0,0.02623
321.5,0.02552
322.0,0.02307
322.5,0.02023
323.0,0.02242
323.5,0.03237
324.0,0.03853
324.5,0.03716
325.0,0.02871
325.5,0.04027
326.0,0.05386
326.5,0.05747
327.0,0.05594
327.5,0.05241
328.0,0.04278
328.5,0.04991
329.0,0.06478
329.5,0.07534
330.0,0.0745
330.5,0.05601
331.0,0.05584
331.5,0.05946
332.0,0.06866
332.5,0.06998
333.0,0.06857
333.5,0.05907
334.0,0.06002
334.5,0.07324
335.0,0.07106
335.5,0.08431
336.0,0.05834
336.5,0.06619
337.0,0.05305
337.5,0.06542
338.0,0.06687
338.5,0.07886
339.0,0.0783
339.5,0.07519
340.0,0.08659
340.5,0.07841
341.0,0.07782
341.5,0.07187
342.0,0.08605
342.5,0.08066
343.0,0.08839
343.5,0.08304
344.0,0.0603
344.5,0.06175
345.0,0.08229
345.5,0.08429
346.0,0.0718
346.5,0.08144
347.0,0.08717
347.5,0.07043
348.0,0.08063
348.5,0.08079
349.0,0.07506
349.5,0.07432
350.0,0.092
350.5,0.09707
351.0,0.08657
351.5,0.08376
352.0,0.09028
352.5,0.07066
353.0,0.08918
353.5,0.0955
354.0,0.09925
354.5,0.1007
355.0,0.1003
355.5,0.09073
356.0,0.09503
356.5,0.08117
357.0,0.06707
357.5,0.08216
358.0,0.06516
358.5,0.05571
359.0,0.07792
359.5,0.09918
360.0,0.1052
360.5,0.0842
361.0,0.07685
361.5,0.08861
362.0,0.07673
362.5,0.1063
363.0,0.09559
363.5,0.08812
364.0,0.1079
364.5,0.09224
365.0,0.09399
365.5,0.1181
366.0,0.1252
366.5,0.1178
367.0,0.1148
367.5,0.1192
368.0,0.1044
368.5,0.1054
369.0,0.1139
369.5,0.1215
370.0,0.1296
370.5,0.1007
371.0,0.1077
371.5,0.1348
372.0,0.08952
372.5,0.1074
373.0,0.1094
373.5,0.07122
374.0,0.1036
374.5,0.08585
375.0,0.08351
375.5,0.1247
376.0,0.1035
376.5,0.1073
377.0,0.1137
377.5,0.1331
378.0,0.1444
378.5,0.1365
379.0,0.1127
379.5,0.103
380.0,0.1072
380.5,0.1299
381.0,0.1304
381.5,0.1035
382.0,0.09201
382.5,0.07854
383.0,0.07279
383.5,0.07018
384.0,0.07749
384.5,0.1141
385.0,0.1132
385.5,0.1056
386.0,0.0905
386.5,0.119
387.0,0.09897
387.5,0.1113
388.0,0.1028
388.5,0.1017
389.0,0.1099
389.5,0.1332
390.0,0.1339
390.5,0.1233
391.0,0.1453
391.5,0.1483
392.0,0.125
392.5,0.112
393.0,0.06242
393.5,0.04542
394.0,0.0925
394.5,0.1177
395.0,0.1438
395.5,0.1461
396.0,0.1268
396.5,0.07425
397.0,0.05578
397.5,0.1135
398.0,0.1591
398.5,0.1646
399.0,0.1785
399.5,0.1781
400.0,0.185
401.0,0.1851
402.0,0.1958
403.0,0.1864
404.0,0.1838
405.0,0.1841
406.0,0.1816
407.0,0.179
408.0,0.1862
409.0,0.1996
410.0,0.1748
411.0,0.1897
412.0,0.2043
413.0,0.1995
414.0,0.2024
415.0,0.2033
416.0,0.2074
417.0,0.2026
418.0,0.1992
419.0,0.2022
420.0,0.2016
421.0,0.2113
422.0,0.2012
423.0,0.1968
424.0,0.2083
425.0,0.2084
426.0,0.2036
427.0,0.2001
428.0,0.1952
429.0,0.1855
430.0,0.1626
431.0,0.1613
432.0,0.2087
433.0,0.2102
434.0,0.1954
435.0,0.2042
436.0,0.2308
437.0,0.2283
438.0,0.2083
439.0,0.215
440.0,0.2223
441.0,0.2308
442.0,0.2478
443.0,0.2412
444.0,0.2471
445.0,0.2419
446.0,0.2317
447.0,0.2513
448.0,0.255
449.0,0.2569
450.0,0.2645
451.0,0.2746
452.0,0.2651
453.0,0.2497
454.0,0.2614
455.0,0.2631
456.0,0.2696
457.0,0.2742
458.0,0.2645
459.0,0.2633
460.0,0.2639
461.0,0.2701
462.0,0.2728
463.0,0.2711
464.0,0.2677
465.0,0.2653
466.0,0.2685
467.0,0.2635
468.0,0.2667
469.0,0.2681
470.0,0.2595
471.0,0.2594
472.0,0.2734
473.0,0.2699
474.0,0.2699
475.0,0.2715
476.0,0.2625
477.0,0.2626
478.0,0.2701
479.0,0.2688
480.0,0.2698
481.0,0.2755
482.0,0.2778
483.0,0.2754
484.0,0.2704
485.0,0.2583
486.0,0.2266
487.0,0.2381
488.0,0.2612
489.0,0.2619
490.0,0.276
491.0,0.2716
492.0,0.2567
493.0,0.2653
494.0,0.2681
495.0,0.2707
496.0,0.2724
497.0,0.2765
498.0,0.2635
499.0,0.2665
500.0,0.2582
501.0,0.2528
502.0,0.2481
503.0,0.257
504.0,0.2473
505.0,0.2588
506.0,0.2671
507.0,0.2545
508.0,0.2476
509.0,0.2555
510.0,0.255
511.0,0.2625
512.0,0.2658
513.0,0.2516
514.0,0.2502
515.0,0.2477
516.0,0.2469
517.0,0.2196
518.0,0.2307
519.0,0.2419
520.0,0.2506
521.0,0.2528
522.0,0.2527
523.0,0.2479
524.0,0.256
525.0,0.2581
526.0,0.2462
527.0,0.2312
528.0,0.2439
529.0,0.2566
530.0,0.2525
531.0,0.2559
532.0,0.2469
533.0,0.2397
534.0,0.247
535.0,0.2529
536.0,0.2556
537.0,0.2459
538.0,0.2505
539.0,0.2483
540.0,0.2378
541.0,0.2383
542.0,0.2452
543.0,0.2434
544.0,0.2467
545.0,0.2461
546.0,0.2464
547.0,0.247
548.0,0.2445
549.0,0.2455
550.0,0.2484
551.0,0.2456
552.0,0.2473
553.0,0.2427
554.0,0.2484
555.0,0.2486
556.0,0.2452
557.0,0.2372
558.0,0.2349
559.0,0.2299
560.0,0.2323
561.0,0.2348
562.0,0.2324
563.0,0.2379
564.0,0.2308
565.0,0.2282
566.0,0.2243
567.0,0.2278
568.0,0.2239
569.0,0.2152
570.0,0.2155
571.0,0.215
572.0,0.2178
573.0,0.2197
574.0,0.2185
575.0,0.2135
576.0,0.2116
577.0,0.2143
578.0,0.2121
579.0,0.2146
580.0,0.2213
581.0,0.2244
582.0,0.2305
583.0,0.2325
584.0,0.2355
585.0,0.2303
586.0,0.2257
587.0,0.2296
588.0,0.2198
589.0,0.1866
590.0,0.1957
591.0,0.2121
592.0,0.2064
593.0,0.2132
594.0,0.2103
595.0,0.2017
596.0,0.2167
597.0,0.2123
598.0,0.2139
599.0,0.215
600.0,0.217
601.0,0.2165
602.0,0.2153
603.0,0.2196
604.0,0.2237
605.0,0.223
606.0,0.2228
607.0,0.2258
608.0,0.2241
609.0,0.2252
610.0,0.2243
611.0,0.2261
612.0,0.226
613.0,0.2236
614.0,0.2212
615.0,0.2268
616.0,0.2198
617.0,0.2198
618.0,0.2287
619.0,0.2267
620.0,0.2281
621.0,0.2278
622.0,0.2249
623.0,0.2212
624.0,0.2178
625.0,0.2171
626.0,0.2201
627.0,0.2207
628.0,0.1858
629.0,0.2082
630.0,0.2026
631.0,0.2142
632.0,0.2131
633.0,0.2224
634.0,0.2226
635.0,0.2273
636.0,0.2256
637.0,0.2304
638.0,0.2343
639.0,0.2326
640.0,0.2314
641.0,0.2321
642.0,0.232
643.0,0.2352
644.0,0.2354
645.0,0.2353
646.0,0.2273
647.0,0.2186
648.0,0.2197
649.0,0.2142
650.0,0.223
651.0,0.2339
652.0,0.2172
653.0,0.2315
654.0,0.2293
655.0,0.2172
656.0,0.195
657.0,0.2009
658.0,0.2276
659.0,0.2303
660.0,0.2319
661.0,0.2342
662.0,0.2336
663.0,0.2293
664.0,0.234
665.0,0.2357
666.0,0.2365
667.0,0.237
668.0,0.2381
669.0,0.2423
670.0,0.2416
671.0,0.2421
672.0,0.2403
673.0,0.2443
674.0,0.2438
675.0,0.242
676.0,0.244
677.0,0.2419
678.0,0.2429
679.0,0.2393
680.0,0.2414
681.0,0.24
682.0,0.2397
683.0,0.2394
684.0,0.2381
685.0,0.2406
686.0,0.2387
687.0,0.08108
688.0,0.1234
689.0,0.125
690.0,0.143
691.0,0.1656
692.0,0.1851
693.0,0.1833
694.0,0.1852
695.0,0.2039
696.0,0.205
697.0,0.2296
698.0,0.2258
699.0,0.2118
700.0,0.2088
701.0,0.2027
702.0,0.2076
703.0,0.2094
704.0,0.2213
705.0,0.2214
706.0,0.2231
707.0,0.2242
708.0,0.2243
709.0,0.2285
710.0,0.2263
711.0,0.2275
712.0,0.2287
713.0,0.2245
714.0,0.2261
715.0,0.2151
716.0,0.2144
717.0,0.1559
718.0,0.1417
719.0,0.1276
720.0,0.1303
721.0,0.1597
722.0,0.2008
723.0,0.1784
724.0,0.1496
725.0,0.1443
726.0,0.1517
727.0,0.1612
728.0,0.1428
729.0,0.1581
730.0,0.1638
731.0,0.1555
732.0,0.1775
733.0,0.1973
734.0,0.2057
735.0,0.1994
736.0,0.1982
737.0,0.1994
738.0,0.2114
739.0,0.2077
740.0,0.2156
741.0,0.215
742.0,0.217
743.0,0.223
744.0,0.2235
745.0,0.2245
746.0,0.2255
747.0,0.2262
748.0,0.2259
749.0,0.2234
750.0,0.2233
751.0,0.2211
752.0,0.2222
753.0,0.2235
754.0,0.224
755.0,0.2227
756.0,0.2227
757.0,0.223
758.0,0.22
759.0,0.2092
760.0,0.003667
761.0,0.001528
762.0,0.03701
763.0,0.007634
764.0,0.01824
765.0,0.03681
766.0,0.06647
767.0,0.1168
768.0,0.1711
769.0,0.1843
770.0,0.2021
771.0,0.209
772.0,0.2112
773.0,0.2131
774.0,0.2125
775.0,0.2111
776.0,0.2139
777.0,0.2111
778.0,0.2098
779.0,0.2099
780.0,0.2089
781.0,0.2092
782.0,0.2106
783.0,0.2071
784.0,0.2083
785.0,0.2063
786.0,0.2082
787.0,0.1998
788.0,0.1953
789.0,0.1954
790.0,0.1846
791.0,0.192
792.0,0.1915
793.0,0.1879
794.0,0.1968
795.0,0.1985
796.0,0.184
797.0,0.1833
798.0,0.1972
799.0,0.1945
800.0,0.1892
801.0,0.1864
802.0,0.1855
803.0,0.1829
804.0,0.1843
805.0,0.1862
806.0,0.1959
807.0,0.1927
808.0,0.1931
809.0,0.186
810.0,0.1828
811.0,0.18
812.0,0.1676
813.0,0.1629
814.0,0.1303
815.0,0.1309
816.0,0.1194
817.0,0.1218
818.0,0.1144
819.0,0.1386
820.0,0.1272
821.0,0.1666
822.0,0.1588
823.0,0.08295
824.0,0.147
825.0,0.1643
826.0,0.1515
827.0,0.1663
828.0,0.1234
829.0,0.152
830.0,0.1492
831.0,0.1493
832.0,0.1416
833.0,0.1583
834.0,0.1481
835.0,0.1762
836.0,0.1585
837.0,0.1765
838.0,0.1662
839.0,0.1735
840.0,0.1786
841.0,0.1739
842.0,0.1776
843.0,0.1811
844.0,0.1768
845.0,0.1851
846.0,0.185
847.0,0.1826
848.0,0.1799
849.0,0.1748
850.0,0.1676
851.0,0.1758
852.0,0.1754
853.0,0.1701
854.0,0.1458
855.0,0.1617
856.0,0.1761
857.0,0.1811
858.0,0.1792
859.0,0.1801
860.0,0.1809
861.0,0.1798
862.0,0.1829
863.0,0.1872
864.0,0.1779
865.0,0.1765
866.0,0.1587
867.0,0.1657
868.0,0.1804
869.0,0.1767
870.0,0.1818
871.0,0.1793
872.0,0.1788
873.0,0.1784
874.0,0.1763
875.0,0.1727
876.0,0.1744
877.0,0.1763
878.0,0.1779
879.0,0.1752
880.0,0.1715
881.0,0.1682
882.0,0.1715
883.0,0.1729
884.0,0.1717
885.0,0.173
886.0,0.1622
887.0,0.166
888.0,0.1674
889.0,0.1715
890.0,0.1672
891.0,0.1683
892.0,0.1599
893.0,0.1518
894.0,0.139
895.0,0.1227
896.0,0.1135
897.0,0.0886
898.0,0.1003
899.0,0.06698
900.0,0.1086
901.0,0.07027
902.0,0.09402
903.0,0.09045
904.0,0.1372
905.0,0.13
906.0,0.1187
907.0,0.08091
908.0,0.08632
909.0,0.09826
910.0,0.077
911.0,0.0912
912.0,0.09431
913.0,0.07762
914.0,0.07928
915.0,0.08435
916.0,0.07049
917.0,0.09917
918.0,0.07117
919.0,0.1047
920.0,0.1153
921.0,0.1184
922.0,0.09839
923.0,0.1156
924.0,0.0977
925.0,0.09626
926.0,0.09548
927.0,0.114
928.0,0.06264
929.0,0.05228
930.0,0.03293
931.0,0.03044
932.0,0.01575
933.0,0.01074
934.0,0.002724
935.0,0.01238
936.0,0.005263
937.0,0.005361
938.0,0.007325
939.0,0.02926
940.0,0.04072
941.0,0.02432
942.0,0.03082
943.0,0.01592
944.0,0.02136
945.0,0.02652
946.0,0.008157
947.0,0.02506
948.0,0.01799
949.0,0.0402
950.0,0.004584
951.0,0.03956
952.0,0.01461
953.0,0.02315
954.0,0.03367
955.0,0.02418
956.0,0.03136
957.0,0.01455
958.0,0.04917
959.0,0.03097
960.0,0.03495
961.0,0.04571
962.0,0.04327
963.0,0.05611
964.0,0.04977
965.0,0.05486
966.0,0.05514
967.0,0.05365
968.0,0.1002
969.0,0.09908
970.0,0.08931
971.0,0.1151
972.0,0.1067
973.0,0.08018
974.0,0.07585
975.0,0.08177
976.0,0.07036
977.0,0.09648
978.0,0.08474
979.0,0.09181
980.0,0.08506
981.0,0.1147
982.0,0.105
983.0,0.09838
984.0,0.1249
985.0,0.104
986.0,0.1315
987.0,0.1253
988.0,0.1256
989.0,0.1342
990.0,0.1244
991.0,0.134
992.0,0.1353
993.0,0.1282
994.0,0.1359
995.0,0.1365
996.0,0.1351
997.0,0.1357
998.0,0.1347
999.0,0.1345
1000.0,0.1323
1001.0,0.1354
1002.0,0.1263
1003.0,0.1327
1004.0,0.128
1005.0,0.1252
1006.0,0.1292
1007.0,0.1324
1008.0,0.1308
1009.0,0.1291
1010.0,0.128
1011.0,0.1318
1012.0,0.1298
1013.0,0.1319
1014.0,0.1309
1015.0,0.1299
1016.0,0.1292
1017.0,0.1293
1018.0,0.1295
1019.0,0.1247
1020.0,0.1285
1021.0,0.1287
1022.0,0.1269
1023.0,0.1282
1024.0,0.1245
1025.0,0.1288
1026.0,0.1276
1027.0,0.1275
1028.0,0.1271
1029.0,0.1253
1030.0,0.1269
1031.0,0.1261
1032.0,0.126
1033.0,0.1241
1034.0,0.1242
1035.0,0.1245
1036.0,0.1249
1037.0,0.123
1038.0,0.1234
1039.0,0.1232
1040.0,0.1227
1041.0,0.123
1042.0,0.1221
1043.0,0.1216
1044.0,0.1219
1045.0,0.1201
1046.0,0.1187
1047.0,0.1196
1048.0,0.12
1049.0,0.1194
1050.0,0.1187
1051.0,0.1183
1052.0,0.1176
1053.0,0.1164
1054.0,0.1164
1055.0,0.1161
1056.0,0.1153
1057.0,0.1147
1058.0,0.1116
1059.0,0.1114
1060.0,0.111
1061.0,0.1107
1062.0,0.1109
1063.0,0.1096
1064.0,0.111
1065.0,0.1094
1066.0,0.1078
1067.0,0.109
1068.0,0.1061
1069.0,0.1033
1070.0,0.1064
1071.0,0.1097
1072.0,0.1072
1073.0,0.1059
1074.0,0.1107
1075.0,0.1009
1076.0,0.1103
1077.0,0.106
1078.0,0.1027
1079.0,0.1095
1080.0,0.1042
1081.0,0.09861
1082.0,0.104
1083.0,0.1056
1084.0,0.09746
1085.0,0.1048
1086.0,0.08992
1087.0,0.09653
1088.0,0.1048
1089.0,0.09663
1090.0,0.09276
1091.0,0.1032
1092.0,0.1036
1093.0,0.07683
1094.0,0.09339
1095.0,0.07993
1096.0,0.07383
1097.0,0.1013
1098.0,0.07077
1099.0,0.07517
1100.0,0.06619
1101.0,0.06879
1102.0,0.06265
1103.0,0.05992
1104.0,0.06047
1105.0,0.07231
1106.0,0.04067
1107.0,0.06626
1108.0,0.0473
1109.0,0.04808
1110.0,0.06288
1111.0,0.0308
1112.0,0.04816
1113.0,0.02063
1114.0,0.02307
1115.0,0.01806
1116.0,0.01041
1117.0,0.001553
1118.0,0.01187
1119.0,0.003376
1120.0,0.003831
1121.0,0.006016
1122.0,0.001165
1123.0,0.003505
1124.0,0.00293
1125.0,0.004418
1126.0,0.0004386
1127.0,0.005091
1128.0,0.001556
1129.0,0.001729
1130.0,0.001101
1131.0,0.0159
1132.0,0.01099
1133.0,0.003991
1134.0,0.0003314
1135.0,0.0001614
1136.0,0.002552
1137.0,0.01444
1138.0,0.009227
1139.0,0.023
1140.0,0.01547
1141.0,0.008926
1142.0,0.01164
1143.0,0.02103
1144.0,0.003901
1145.0,0.003743
1146.0,0.004022
1147.0,0.0004702
1148.0,0.01714
1149.0,0.01133
1150.0,0.005115
1151.0,0.009219
1152.0,0.01408
1153.0,0.0162
1154.0,0.004178
1155.0,0.02398
1156.0,0.01951
1157.0,0.02739
1158.0,0.02694
1159.0,0.03071
1160.0,0.02555
1161.0,0.03806
1162.0,0.03734
1163.0,0.06467
1164.0,0.05051
1165.0,0.04292
1166.0,0.04692
1167.0,0.05341
1168.0,0.05335
1169.0,0.0556
1170.0,0.06505
1171.0,0.06343
1172.0,0.06807
1173.0,0.06499
1174.0,0.03702
1175.0,0.06693
1176.0,0.08056
1177.0,0.07246
1178.0,0.04679
1179.0,0.081
1180.0,0.06485
1181.0,0.0671
1182.0,0.03718
1183.0,0.06747
1184.0,0.05992
1185.0,0.0549
1186.0,0.07516
1187.0,0.06816
1188.0,0.03585
1189.0,0.0631
1190.0,0.0745
1191.0,0.06371
1192.0,0.07626
1193.0,0.07059
1194.0,0.07443
1195.0,0.06564
1196.0,0.06082
1197.0,0.07603
1198.0,0.06815
1199.0,0.04859
1200.0,0.0699
1201.0,0.06363
1202.0,0.06693
1203.0,0.0637
1204.0,0.05237
1205.0,0.07079
1206.0,0.08271
1207.0,0.06515
1208.0,0.06703
1209.0,0.06853
1210.0,0.07376
1211.0,0.0672
1212.0,0.06038
1213.0,0.07692
1214.0,0.06376
1215.0,0.06231
1216.0,0.07762
1217.0,0.07379
1218.0,0.07678
1219.0,0.07451
1220.0,0.07707
1221.0,0.07942
1222.0,0.07644
1223.0,0.07481
1224.0,0.07198
1225.0,0.07823
1226.0,0.08055
1227.0,0.06871
1228.0,0.08188
1229.0,0.08062
1230.0,0.0782
1231.0,0.08373
1232.0,0.0831
1233.0,0.0758
1234.0,0.08481
1235.0,0.08346
1236.0,0.08471
1237.0,0.08188
1238.0,0.08445
1239.0,0.08332
1240.0,0.08391
1241.0,0.08218
1242.0,0.08318
1243.0,0.08259
1244.0,0.08274
1245.0,0.08335
1246.0,0.08292
1247.0,0.0822
1248.0,0.08146
1249.0,0.08233
1250.0,0.08141
1251.0,0.0795
1252.0,0.08061
1253.0,0.07799
1254.0,0.07579
1255.0,0.08002
1256.0,0.07419
1257.0,0.07306
1258.0,0.07725
1259.0,0.06909
1260.0,0.0701
1261.0,0.05994
1262.0,0.05507
1263.0,0.05503
1264.0,0.0444
1265.0,0.05478
1266.0,0.04881
1267.0,0.05237
1268.0,0.04547
1269.0,0.01122
1270.0,0.0511
1271.0,0.06067
1272.0,0.06136
1273.0,0.06001
1274.0,0.06119
1275.0,0.06315
1276.0,0.06503
1277.0,0.06724
1278.0,0.07093
1279.0,0.07041
1280.0,0.0695
1281.0,0.06756
1282.0,0.06712
1283.0,0.07186
1284.0,0.07325
1285.0,0.0741
1286.0,0.07618
1287.0,0.07298
1288.0,0.0737
1289.0,0.06736
1290.0,0.07316
1291.0,0.07495
1292.0,0.0636
1293.0,0.07198
1294.0,0.07122
1295.0,0.06825
1296.0,0.06136
1297.0,0.05546
1298.0,0.06559
1299.0,0.07258
1300.0,0.05199
1301.0,0.05484
1302.0,0.0658
1303.0,0.05194
1304.0,0.03659
1305.0,0.06391
1306.0,0.06258
1307.0,0.04005
1308.0,0.05335
1309.0,0.06031
1310.0,0.0383
1311.0,0.0492
1312.0,0.04724
1313.0,0.0436
1314.0,0.03592
1315.0,0.0341
1316.0,0.04687
1317.0,0.04295
1318.0,0.05028
1319.0,0.03015
1320.0,0.03052
1321.0,0.0391
1322.0,0.03762
1323.0,0.02144
1324.0,0.03006
1325.0,0.04453
1326.0,0.03399
1327.0,0.03101
1328.0,0.02406
1329.0,0.01279
1330.0,0.0198
1331.0,0.007263
1332.0,0.008405
1333.0,0.01258
1334.0,0.01432
1335.0,0.02035
1336.0,0.01306
1337.0,0.01135
1338.0,0.01185
1339.0,0.01219
1340.0,0.01328
1341.0,0.009508
1342.0,0.01056
1343.0,0.003567
1344.0,0.002428
1345.0,0.002991
1346.0,0.0005115
1347.0,0.0004072
1348.0,6.665e-06
1349.0,2.78e-05
1350.0,3.155e-05
1351.0,4.088e-06
1352.0,9.592e-07
1353.0,4.866e-08
1354.0,1.68e-07
1355.0,1.346e-09
1356.0,2.357e-08
1357.0,3.58e-08
1358.0,1.58e-09
1359.0,1.99e-10
1360.0,7.192e-10
1361.0,8.045e-13
1362.0,2.201e-15
1363.0,9.67e-10
1364.0,3.992e-10
1365.0,7.683e-16
1366.0,4.191e-09
1367.0,1.711e-09
1368.0,5.933e-18
1369.0,1.471e-10
1370.0,7.245e-11
1371.0,4.107e-12
1372.0,9.278e-10
1373.0,1.869e-08
1374.0,8.676e-08
1375.0,1.573e-07
1376.0,1.42e-07
1377.0,6.478e-08
1378.0,6.318e-07
1379.0,2.712e-08
1380.0,3.872e-08
1381.0,1.009e-09
1382.0,8.131e-10
1383.0,1.216e-11
1384.0,1.594e-10
1385.0,7.623e-10
1386.0,7.169e-10
1387.0,8.671e-08
1388.0,1.707e-09
1389.0,2.933e-07
1390.0,2.515e-07
1391.0,1.673e-07
1392.0,1.086e-08
1393.0,5.766e-08
1394.0,2.958e-08
1395.0,2.167e-10
1396.0,1.047e-12
1397.0,2.265e-08
1398.0,6.694e-07
1399.0,4.238e-07
1400.0,4.479e-13
1401.0,1.858e-12
1402.0,1.371e-06
1403.0,1.567e-06
1404.0,4.611e-07
1405.0,1.026e-10
1406.0,1.161e-06
1407.0,1.143e-07
1408.0,9.477e-07
1409.0,3.128e-07
1410.0,2.556e-07
