interpolation:linear
wavelength,value
280.0,2.547e-22
280.5,8.388e-21
281.0,4.499e-20
281.5,3.961e-19
282.0,6.451e-19
282.5,1.6e-18
283.0,5.063e-18
283.5,8.245e-18
284.0,1.36e-16
284.5,3.968e-16
285.0,6.511e-16
285.5,3.254e-15
286.0,1.313e-14
286.5,5.917e-14
287.0,1.699e-13
287.5,6.558e-13
288.0,2.284e-12
288.5,6.859e-12
289.0,1.818e-11
289.5,5.474e-11
290.0,1.517e-10
290.5,3.091e-10
291.0,6.633e-10
291.5,1.904e-09
292.0,3.828e-09
292.5,5.38e-09
293.0,1.156e-08
293.5,2.822e-08
294.0,4.419e-08
294.5,6.057e-08
295.0,1.028e-07
295.5,1.717e-07
296.0,3.339e-07
296.5,4.711e-07
297.0,6.423e-07
297.5,1.747e-06
298.0,2.79e-06
298.5,2.838e-06
299.0,6.334e-06
299.5,1.078e-05
300.0,1.203e-05
300.5,1.771e-05
301.0,3.298e-05
301.5,5.401e-05
302.0,4.685e-05
302.5,9.446e-05
303.0,0.0001776
303.5,0.000232
304.0,0.000226
304.5,0.0003719
305.0,0.0006493
305.5,0.000815
306.0,0.0008176
306.5,0.001081
307.0,0.001838
307.5,0.002793
308.0,0.003015
308.5,0.003809
309.0,0.003846
309.5,0.004894
310.0,0.005161
310.5,0.008562
311.0,0.01118
311.5,0.01098
312.0,0.01195
312.5,0.01537
313.0,0.01716
313.5,0.01622
314.0,0.02168
314.5,0.02099
315.0,0.02801
315.5,0.02246
316.0,0.02106
316.5,0.03214
317.0,0.03986
317.5,0.04077
318.0,0.03316
318.5,0.04456
319.0,0.05502
319.5,0.04208
320.0,0.05036
320.5,0.06831
321.0,0.06538
321.5,0.06314
322.0,0.0623
322.5,0.05442
323.0,0.05701
323.5,0.07349
324.0,0.0865
324.5,0.08604
325.0,0.0724
325.5,0.09699
326.0,0.1201
326.5,0.1235
327.0,0.122
327.5,0.1164
328.0,0.1001
328.5,0.1098
329.0,0.136
329.5,0.156
330.0,0.1561
330.5,0.1218
331.0,0.123
331.5,0.1275
332.0,0.1417
332.5,0.142
333.0,0.1406
333.5,0.1247
334.0,0.1274
334.5,0.1505
335.0,0.1434
335.5,0.1681
336.0,0.1164
336.5,0.135
337.0,0.1097
337.5,0.136
338.0,0.1355
338.5,0.1572
339.0,0.1559
339.5,0.1499
340.0,0.1754
340.5,0.1585
341.0,0.1552
341.5,0.1428
342.0,0.1709
342.5,0.1601
343.0,0.1759
343.5,0.1655
344.0,0.122
344.5,0.1235
345.0,0.164
345.5,0.1677
346.0,0.1427
346.5,0.1618
347.0,0.1736
347.5,0.1404
348.0,0.1603
348.5,0.1605
349.0,0.149
349.5,0.1477
350.0,0.1828
350.5,0.1929
351.0,0.1723
351.5,0.1672
352.0,0.1799
352.5,0.1406
353.0,0.1774
353.5,0.1899
354.0,0.1973
354.5,0.2001
355.0,0.1995
355.5,0.1804
356.0,0.1889
356.5,0.1614
357.0,0.1334
357.5,0.1634
358.0,0.1296
358.5,0.1108
359.0,0.155
359.5,0.1975
360.0,0.2095
360.5,0.1676
361.0,0.1529
361.5,0.1763
362.0,0.1527
362.5,0.2115
363.0,0.1902
363.5,0.1754
364.0,0.2147
364.5,0.1836
365.0,0.1871
365.5,0.235
366.0,0.2492
366.5,0.2344
367.0,0.2284
367.5,0.2372
368.0,0.2077
368.5,0.2097
369.0,0.2267
369.5,0.2418
370.0,0.258
370.5,0.2004
371.0,0.2143
371.5,0.2682
372.0,0.1781
372.5,0.2137
373.0,0.2176
373.5,0.1417
374.0,0.2061
374.5,0.1708
375.0,0.1661
375.5,0.2482
376.0,0.2058
376.5,0.2134
377.0,0.2261
377.5,0.2648
378.0,0.2871
378.5,0.2715
379.0,0.2242
379.5,0.2048
380.0,0.2131
380.5,0.2583
381.0,0.2591
381.5,0.2056
382.0,0.1828
382.5,0.156
383.0,0.1446
383.5,0.1394
384.0,0.1538
384.5,0.2264
385.0,0.2247
385.5,0.2095
386.0,0.1795
386.5,0.2361
387.0,0.1963
387.5,0.2206
388.0,0.2038
388.5,0.2016
389.0,0.2178
389.5,0.264
390.0,0.2652
390.5,0.2442
391.0,0.2877
391.5,0.2936
392.0,0.2474
392.5,0.2217
393.0,0.1235
393.5,0.08983
394.0,0.1829
394.5,0.2327
395.0,0.2842
395.5,0.2888
396.0,0.2506
396.5,0.1466
397.0,0.1101
397.5,0.2241
398.0,0.3139
398.5,0.3247
399.0,0.352
399.5,0.3511
400.0,0.3647
401.0,0.3677
402.0,0.3886
403.0,0.3698
404.0,0.3645
405.0,0.3649
406.0,0.3595
407.0,0.3543
408.0,0.3684
409.0,0.3947
410.0,0.3454
411.0,0.3746
412.0,0.4031
413.0,0.3934
414.0,0.3988
415.0,0.4004
416.0,0.4081
417.0,0.3984
418.0,0.3914
419.0,0.3971
420.0,0.3957
421.0,0.4145
422.0,0.3943
423.0,0.3856
424.0,0.4081
425.0,0.4079
426.0,0.398
427.0,0.391
428.0,0.3811
429.0,0.3617
430.0,0.3169
431.0,0.3142
432.0,0.4062
433.0,0.4089
434.0,0.3799
435.0,0.397
436.0,0.448
437.0,0.4427
438.0,0.4036
439.0,0.417
440.0,0.4308
441.0,0.447
442.0,0.4797
443.0,0.4671
444.0,0.4779
445.0,0.4677
446.0,0.4472
447.0,0.4843
448.0,0.4916
449.0,0.4945
450.0,0.5089
451.0,0.5281
452.0,0.5092
453.0,0.4794
454.0,0.5011
455.0,0.5044
456.0,0.5167
457.0,0.5255
458.0,0.5072
459.0,0.5049
460.0,0.5061
461.0,0.518
462.0,0.5226
463.0,0.5191
464.0,0.5115
465.0,0.5059
466.0,0.5115
467.0,0.502
468.0,0.508
469.0,0.5107
470.0,0.4944
471.0,0.4941
472.0,0.5206
473.0,0.5139
474.0,0.5142
475.0,0.518
476.0,0.5017
477.0,0.5026
478.0,0.5168
479.0,0.5141
480.0,0.5156
481.0,0.526
482.0,0.5295
483.0,0.524
484.0,0.5139
485.0,0.4902
486.0,0.4291
487.0,0.4503
488.0,0.494
489.0,0.4953
490.0,0.5216
491.0,0.513
492.0,0.4845
493.0,0.5005
494.0,0.5057
495.0,0.5101
496.0,0.5133
497.0,0.5212
498.0,0.4967
499.0,0.5028
500.0,0.4877
501.0,0.4782
502.0,0.4705
503.0,0.4885
504.0,0.4731
505.0,0.4925
506.0,0.5084
507.0,0.4839
508.0,0.4698
509.0,0.4837
510.0,0.4818
511.0,0.4954
512.0,0.5011
513.0,0.4744
514.0,0.4714
515.0,0.4668
516.0,0.4655
517.0,0.4138
518.0,0.435
519.0,0.4562
520.0,0.4727
521.0,0.4771
522.0,0.4772
523.0,0.4684
524.0,0.4846
525.0,0.4895
526.0,0.4674
527.0,0.4398
528.0,0.4646
529.0,0.4893
530.0,0.4819
531.0,0.4888
532.0,0.4719
533.0,0.4581
534.0,0.4719
535.0,0.4826
536.0,0.4873
537.0,0.4684
538.0,0.4769
539.0,0.4729
540.0,0.4532
541.0,0.4552
542.0,0.4691
543.0,0.4648
544.0,0.4721
545.0,0.4708
546.0,0.4722
547.0,0.4726
548.0,0.4673
549.0,0.469
550.0,0.4746
551.0,0.4689
552.0,0.4722
553.0,0.4636
554.0,0.4746
555.0,0.4754
556.0,0.469
557.0,0.4542
558.0,0.4503
559.0,0.4413
560.0,0.4465
561.0,0.4518
562.0,0.448
563.0,0.4596
564.0,0.4465
565.0,0.4422
566.0,0.4352
567.0,0.4428
568.0,0.4373
569.0,0.4238
570.0,0.4241
571.0,0.4223
572.0,0.4304
573.0,0.4346
574.0,0.4328
575.0,0.4239
576.0,0.4201
577.0,0.425
578.0,0.4195
579.0,0.4226
580.0,0.433
581.0,0.4369
582.0,0.4467
583.0,0.4491
584.0,0.4538
585.0,0.4432
586.0,0.4342
587.0,0.4427
588.0,0.4281
589.0,0.3719
590.0,0.3895
591.0,0.4166
592.0,0.4088
593.0,0.4182
594.0,0.4139
595.0,0.4009
596.0,0.4228
597.0,0.4167
598.0,0.4175
599.0,0.4186
600.0,0.4208
601.0,0.4185
602.0,0.4159
603.0,0.4234
604.0,0.4307
605.0,0.4289
606.0,0.4278
607.0,0.4327
608.0,0.4286
609.0,0.43
610.0,0.4276
611.0,0.4302
612.0,0.4294
613.0,0.4243
614.0,0.4191
615.0,0.4288
616.0,0.4152
617.0,0.4147
618.0,0.431
619.0,0.4268
620.0,0.4295
621.0,0.4295
622.0,0.424
623.0,0.4171
624.0,0.4104
625.0,0.4095
626.0,0.4154
627.0,0.4186
628.0,0.3736
629.0,0.4026
630.0,0.3927
631.0,0.4075
632.0,0.4038
633.0,0.4185
634.0,0.4164
635.0,0.4239
636.0,0.4194
637.0,0.4271
638.0,0.4326
639.0,0.4284
640.0,0.4252
641.0,0.4255
642.0,0.4243
643.0,0.4301
644.0,0.4295
645.0,0.4298
646.0,0.4177
647.0,0.4079
648.0,0.4084
649.0,0.3998
650.0,0.408
651.0,0.4268
652.0,0.4028
653.0,0.4215
654.0,0.4173
655.0,0.3986
656.0,0.3555
657.0,0.3655
658.0,0.4116
659.0,0.4153
660.0,0.4175
661.0,0.4207
662.0,0.4204
663.0,0.4125
664.0,0.4192
665.0,0.4208
666.0,0.4217
667.0,0.422
668.0,0.423
669.0,0.4299
670.0,0.4284
671.0,0.4287
672.0,0.4252
673.0,0.432
674.0,0.4306
675.0,0.427
676.0,0.4302
677.0,0.4262
678.0,0.4277
679.0,0.421
680.0,0.4245
681.0,0.4218
682.0,0.4213
683.0,0.4206
684.0,0.4184
685.0,0.4223
686.0,0.4195
687.0,0.2076
688.0,0.2737
689.0,0.2758
690.0,0.3005
691.0,0.3296
692.0,0.3528
693.0,0.3492
694.0,0.3478
695.0,0.3714
696.0,0.3725
697.0,0.4058
698.0,0.3993
699.0,0.3825
700.0,0.3775
701.0,0.3708
702.0,0.3763
703.0,0.3776
704.0,0.3941
705.0,0.3946
706.0,0.3959
707.0,0.397
708.0,0.3976
709.0,0.4012
710.0,0.3996
711.0,0.4001
712.0,0.4003
713.0,0.3949
714.0,0.3968
715.0,0.3813
716.0,0.3808
717.0,0.3041
718.0,0.2771
719.0,0.2517
720.0,0.261
721.0,0.303
722.0,0.3628
723.0,0.3297
724.0,0.2873
725.0,0.2795
726.0,0.2934
727.0,0.3042
728.0,0.2776
729.0,0.2971
730.0,0.3123
731.0,0.2971
732.0,0.3275
733.0,0.3555
734.0,0.3668
735.0,0.3577
736.0,0.3568
737.0,0.3583
738.0,0.3709
739.0,0.3637
740.0,0.3753
741.0,0.3728
742.0,0.3745
743.0,0.3844
744.0,0.3842
745.0,0.3849
746.0,0.3867
747.0,0.3877
748.0,0.387
749.0,0.3826
750.0,0.3825
751.0,0.3786
752.0,0.3804
753.0,0.3824
754.0,0.3832
755.0,0.381
756.0,0.381
757.0,0.3815
758.0,0.3766
759.0,0.3644
760.0,0.01748
761.0,0.006168
762.0,0.1167
763.0,0.03541
764.0,0.07087
765.0,0.1165
766.0,0.1708
767.0,0.249
768.0,0.3182
769.0,0.3323
770.0,0.3522
771.0,0.3589
772.0,0.3609
773.0,0.3637
774.0,0.3622
775.0,0.3597
776.0,0.3642
777.0,0.3594
778.0,0.3572
779.0,0.3575
780.0,0.3556
781.0,0.356
782.0,0.3583
783.0,0.3522
784.0,0.354
785.0,0.3511
786.0,0.3547
787.0,0.345
788.0,0.3391
789.0,0.3388
790.0,0.3252
791.0,0.3327
792.0,0.3309
793.0,0.3251
794.0,0.3353
795.0,0.3397
796.0,0.3228
797.0,0.3226
798.0,0.3385
799.0,0.3352
800.0,0.3278
801.0,0.3252
802.0,0.3242
803.0,0.3209
804.0,0.3221
805.0,0.323
806.0,0.3354
807.0,0.3307
808.0,0.3312
809.0,0.3225
810.0,0.3183
811.0,0.3153
812.0,0.3018
813.0,0.2937
814.0,0.2462
815.0,0.2456
816.0,0.227
817.0,0.232
818.0,0.2205
819.0,0.2568
820.0,0.2382
821.0,0.2939
822.0,0.2831
823.0,0.1695
824.0,0.2689
825.0,0.2889
826.0,0.2728
827.0,0.2931
828.0,0.2337
829.0,0.2722
830.0,0.2675
831.0,0.2685
832.0,0.2576
833.0,0.2809
834.0,0.2664
835.0,0.3035
836.0,0.2831
837.0,0.3045
838.0,0.2913
839.0,0.3005
840.0,0.3081
841.0,0.3021
842.0,0.3052
843.0,0.3077
844.0,0.302
845.0,0.3141
846.0,0.3132
847.0,0.3081
848.0,0.305
849.0,0.2963
850.0,0.2841
851.0,0.2995
852.0,0.298
853.0,0.2878
854.0,0.2477
855.0,0.2733
856.0,0.2981
857.0,0.3056
858.0,0.303
859.0,0.3038
860.0,0.3047
861.0,0.3029
862.0,0.3078
863.0,0.3151
864.0,0.2994
865.0,0.2969
866.0,0.267
867.0,0.2787
868.0,0.3033
869.0,0.297
870.0,0.3055
871.0,0.3014
872.0,0.3004
873.0,0.2998
874.0,0.2962
875.0,0.2902
876.0,0.2931
877.0,0.2962
878.0,0.2992
879.0,0.2946
880.0,0.2883
881.0,0.2834
882.0,0.2893
883.0,0.2908
884.0,0.2893
885.0,0.2914
886.0,0.2756
887.0,0.2802
888.0,0.2835
889.0,0.2884
890.0,0.2838
891.0,0.2844
892.0,0.2733
893.0,0.2621
894.0,0.2468
895.0,0.2257
896.0,0.2108
897.0,0.1726
898.0,0.1924
899.0,0.1371
900.0,0.2025
901.0,0.1436
902.0,0.1809
903.0,0.1782
904.0,0.2448
905.0,0.2337
906.0,0.2164
907.0,0.162
908.0,0.168
909.0,0.1872
910.0,0.1554
911.0,0.1734
912.0,0.1818
913.0,0.1571
914.0,0.158
915.0,0.1703
916.0,0.1428
917.0,0.1912
918.0,0.1456
919.0,0.1983
920.0,0.208
921.0,0.2158
922.0,0.1854
923.0,0.2094
924.0,0.1879
925.0,0.1844
926.0,0.1851
927.0,0.2146
928.0,0.1361
929.0,0.1188
930.0,0.0848
931.0,0.08047
932.0,0.04972
933.0,0.03703
934.0,0.01386
935.0,0.04052
936.0,0.02086
937.0,0.02097
938.0,0.02732
939.0,0.07774
940.0,0.09988
941.0,0.06747
942.0,0.08214
943.0,0.04816
944.0,0.05669
945.0,0.07132
946.0,0.02867
947.0,0.06951
948.0,0.05035
949.0,0.1009
950.0,0.01794
951.0,0.1003
952.0,0.04438
953.0,0.0636
954.0,0.08529
955.0,0.06513
956.0,0.07076
957.0,0.04394
958.0,0.1084
959.0,0.07675
960.0,0.08605
961.0,0.1041
962.0,0.09809
963.0,0.1197
964.0,0.1078
965.0,0.119
966.0,0.1183
967.0,0.1167
968.0,0.1833
969.0,0.1873
970.0,0.1697
971.0,0.2061
972.0,0.1945
973.0,0.1574
974.0,0.1485
975.0,0.158
976.0,0.1432
977.0,0.1771
978.0,0.1624
979.0,0.1733
980.0,0.1613
981.0,0.2052
982.0,0.1918
983.0,0.1818
984.0,0.2171
985.0,0.1908
986.0,0.2244
987.0,0.216
988.0,0.216
989.0,0.226
990.0,0.2145
991.0,0.2263
992.0,0.228
993.0,0.219
994.0,0.2284
995.0,0.2287
996.0,0.227
997.0,0.2277
998.0,0.2264
999.0,0.2257
1000.0,0.2232
1001.0,0.2271
1002.0,0.2168
1003.0,0.2228
1004.0,0.2163
1005.0,0.2098
1006.0,0.2173
1007.0,0.2223
1008.0,0.2204
1009.0,0.2184
1010.0,0.2171
1011.0,0.2212
1012.0,0.2186
1013.0,0.2209
1014.0,0.2194
1015.0,0.2178
1016.0,0.2167
1017.0,0.2171
1018.0,0.2168
1019.0,0.2107
1020.0,0.2154
1021.0,0.2154
1022.0,0.2132
1023.0,0.2154
1024.0,0.211
1025.0,0.2157
1026.0,0.2144
1027.0,0.214
1028.0,0.2134
1029.0,0.2107
1030.0,0.2127
1031.0,0.2117
1032.0,0.2112
1033.0,0.208
1034.0,0.2081
1035.0,0.2087
1036.0,0.2096
1037.0,0.2063
1038.0,0.2071
1039.0,0.2069
1040.0,0.206
1041.0,0.2067
1042.0,0.2053
1043.0,0.2045
1044.0,0.2051
1045.0,0.2023
1046.0,0.1999
1047.0,0.2016
1048.0,0.2026
1049.0,0.2018
1050.0,0.2007
1051.0,0.2002
1052.0,0.1993
1053.0,0.1975
1054.0,0.1977
1055.0,0.1976
1056.0,0.1966
1057.0,0.1958
1058.0,0.1908
1059.0,0.1907
1060.0,0.1903
1061.0,0.1899
1062.0,0.1907
1063.0,0.1886
1064.0,0.1909
1065.0,0.189
1066.0,0.1857
1067.0,0.1879
1068.0,0.1834
1069.0,0.1781
1070.0,0.1837
1071.0,0.188
1072.0,0.1847
1073.0,0.1823
1074.0,0.1886
1075.0,0.1752
1076.0,0.1882
1077.0,0.1827
1078.0,0.1781
1079.0,0.1859
1080.0,0.1799
1081.0,0.1721
1082.0,0.1782
1083.0,0.1797
1084.0,0.1709
1085.0,0.1806
1086.0,0.1597
1087.0,0.1682
1088.0,0.1789
1089.0,0.1695
1090.0,0.164
1091.0,0.1773
1092.0,0.1776
1093.0,0.1406
1094.0,0.1612
1095.0,0.147
1096.0,0.1381
1097.0,0.1735
1098.0,0.1344
1099.0,0.1417
1100.0,0.128
1101.0,0.131
1102.0,0.1223
1103.0,0.1193
1104.0,0.1197
1105.0,0.1376
1106.0,0.0901
1107.0,0.1279
1108.0,0.0994
1109.0,0.1011
1110.0,0.1248
1111.0,0.07281
1112.0,0.1009
1113.0,0.05304
1114.0,0.05974
1115.0,0.04865
1116.0,0.03322
1117.0,0.007629
1118.0,0.03742
1119.0,0.01423
1120.0,0.01727
1121.0,0.02508
1122.0,0.007371
1123.0,0.01578
1124.0,0.01326
1125.0,0.01837
1126.0,0.003534
1127.0,0.02101
1128.0,0.009143
1129.0,0.01001
1130.0,0.006009
1131.0,0.05006
1132.0,0.03718
1133.0,0.01819
1134.0,0.002653
1135.0,0.001127
1136.0,0.01347
1137.0,0.04701
1138.0,0.03209
1139.0,0.06051
1140.0,0.04564
1141.0,0.03066
1142.0,0.03747
1143.0,0.05887
1144.0,0.01525
1145.0,0.01751
1146.0,0.01883
1147.0,0.003883
1148.0,0.05013
1149.0,0.03658
1150.0,0.01754
1151.0,0.03184
1152.0,0.04334
1153.0,0.04563
1154.0,0.01733
1155.0,0.06296
1156.0,0.05403
1157.0,0.06622
1158.0,0.06528
1159.0,0.07318
1160.0,0.06033
1161.0,0.08178
1162.0,0.08138
1163.0,0.124
1164.0,0.1014
1165.0,0.09059
1166.0,0.09417
1167.0,0.1049
1168.0,0.105
1169.0,0.1088
1170.0,0.1227
1171.0,0.1195
1172.0,0.1246
1173.0,0.1225
1174.0,0.07773
1175.0,0.1224
1176.0,0.1406
1177.0,0.1308
1178.0,0.09074
1179.0,0.1418
1180.0,0.12
1181.0,0.1241
1182.0,0.0771
1183.0,0.1235
1184.0,0.1128
1185.0,0.1062
1186.0,0.1349
1187.0,0.1256
1188.0,0.07682
1189.0,0.1166
1190.0,0.1325
1191.0,0.1199
1192.0,0.1349
1193.0,0.1273
1194.0,0.1325
1195.0,0.1213
1196.0,0.1147
1197.0,0.1342
1198.0,0.121
1199.0,0.09486
1200.0,0.1256
1201.0,0.1181
1202.0,0.12
1203.0,0.1174
1204.0,0.09937
1205.0,0.125
1206.0,0.142
1207.0,0.1185
1208.0,0.1191
1209.0,0.1219
1210.0,0.1289
1211.0,0.1199
1212.0,0.1139
1213.0,0.1351
1214.0,0.1183
1215.0,0.1156
1216.0,0.1352
1217.0,0.1301
1218.0,0.1339
1219.0,0.1313
1220.0,0.1343
1221.0,0.1366
1222.0,0.1324
1223.0,0.1304
1224.0,0.1279
1225.0,0.1354
1226.0,0.1376
1227.0,0.1226
1228.0,0.1392
1229.0,0.1376
1230.0,0.1345
1231.0,0.1411
1232.0,0.1401
1233.0,0.1316
1234.0,0.1418
1235.0,0.1403
1236.0,0.1418
1237.0,0.1383
1238.0,0.1413
1239.0,0.1395
1240.0,0.1402
1241.0,0.1386
1242.0,0.1391
1243.0,0.1381
1244.0,0.1387
1245.0,0.1395
1246.0,0.1387
1247.0,0.1379
1248.0,0.1373
1249.0,0.1382
1250.0,0.1371
1251.0,0.1347
1252.0,0.1355
1253.0,0.133
1254.0,0.1307
1255.0,0.135
1256.0,0.1287
1257.0,0.1275
1258.0,0.1319
1259.0,0.1232
1260.0,0.1243
1261.0,0.1126
1262.0,0.1068
1263.0,0.1069
1264.0,0.09331
1265.0,0.1063
1266.0,0.09908
1267.0,0.1031
1268.0,0.09422
1269.0,0.03973
1270.0,0.1018
1271.0,0.1128
1272.0,0.1137
1273.0,0.112
1274.0,0.1131
1275.0,0.1156
1276.0,0.1176
1277.0,0.1196
1278.0,0.1238
1279.0,0.1225
1280.0,0.1212
1281.0,0.1165
1282.0,0.1137
1283.0,0.1222
1284.0,0.1248
1285.0,0.1259
1286.0,0.1284
1287.0,0.1249
1288.0,0.1254
1289.0,0.1184
1290.0,0.1244
1291.0,0.1267
1292.0,0.1137
1293.0,0.123
1294.0,0.1219
1295.0,0.1195
1296.0,0.1109
1297.0,0.1026
1298.0,0.1155
1299.0,0.1236
1300.0,0.09651
1301.0,0.1009
1302.0,0.1153
1303.0,0.09603
1304.0,0.07469
1305.0,0.1125
1306.0,0.1117
1307.0,0.07898
1308.0,0.09746
1309.0,0.1096
1310.0,0.0768
1311.0,0.09171
1312.0,0.08825
1313.0,0.08474
1314.0,0.07323
1315.0,0.07071
1316.0,0.08885
1317.0,0.08312
1318.0,0.09348
1319.0,0.0645
1320.0,0.06414
1321.0,0.07777
1322.0,0.07691
1323.0,0.0511
1324.0,0.06363
1325.0,0.08662
1326.0,0.07011
1327.0,0.06563
1328.0,0.05421
1329.0,0.035
1330.0,0.04861
1331.0,0.02351
1332.0,0.02589
1333.0,0.03711
1334.0,0.03539
1335.0,0.0503
1336.0,0.03631
1337.0,0.03126
1338.0,0.03341
1339.0,0.03404
1340.0,0.03486
1341.0,0.02986
1342.0,0.03193
1343.0,0.0155
1344.0,0.009879
1345.0,0.01378
1346.0,0.004131
1347.0,0.003778
1348.0,8.841e-05
1349.0,0.0003993
1350.0,0.0004858
1351.0,4.623e-05
1352.0,3.853e-06
1353.0,1.049e-07
1354.0,6.086e-07
1355.0,1.661e-09
1356.0,5.073e-08
1357.0,7.645e-08
1358.0,1.992e-09
1359.0,2.087e-10
1360.0,8.163e-10
1361.0,8.217e-13
1362.0,2.245e-15
1363.0,1.023e-09
1364.0,4.284e-10
1365.0,7.833e-16
1366.0,4.547e-09
1367.0,1.992e-09
1368.0,6.048e-18
1369.0,1.581e-10
1370.0,7.546e-11
1371.0,4.226e-12
1372.0,1.096e-09
1373.0,2.913e-08
1374.0,2.025e-07
1375.0,3.126e-07
1376.0,5.664e-07
1377.0,2.338e-07
1378.0,2.421e-06
1379.0,1.024e-07
1380.0,9.288e-08
1381.0,2.117e-09
1382.0,9.32e-10
1383.0,1.344e-11
1384.0,1.684e-10
1385.0,1.077e-09
1386.0,7.762e-10
1387.0,1.388e-07
1388.0,3.627e-09
1389.0,8.74e-07
1390.0,6.851e-07
1391.0,4.5e-07
1392.0,2.933e-08
1393.0,2.021e-07
1394.0,4.324e-08
1395.0,2.742e-10
1396.0,1.072e-12
1397.0,6.45e-08
1398.0,2.365e-06
1399.0,1.605e-06
1400.0,4.57e-13
1401.0,1.905e-12
1402.0,1.612e-05
1403.0,1.506e-05
1404.0,3.912e-06
1405.0,1.168e-10
1406.0,6.402e-06
1407.0,1.096e-06
1408.0,5.766e-06
1409.0,1.059e-06
1410.0,1.573e-06
1411.0,1.413e-05
1412.0,2.691e-05
1413.0,0.0006125
1414.0,1.389e-06
1415.0,5.141e-07
1416.0,0.002043
1417.0,0.0003721
1418.0,0.000307
1419.0,4.242e-05
1420.0,0.0001844
1421.0,0.0002554
1422.0,0.002663
1423.0,0.0004718
1424.0,0.001019
1425.0,0.00124
1426.0,0.001907
1427.0,0.004459
1428.0,7.28e-05
1429.0,0.002688
