interpolation:linear
wavelength,value
280.0,1.536e-20
280.5,4.534e-19
281.0,2.347e-18
281.5,4.209e-19
282.0,1.567e-18
282.5,4.286e-18
283.0,1.406e-17
283.5,2.309e-17
284.0,3.671e-16
284.5,1.043e-15
285.0,1.914e-15
285.5,1.055e-14
286.0,4.35e-14
286.5,1.991e-13
287.0,5.729e-13
287.5,2.192e-12
288.0,6.017e-12
288.5,2.255e-11
289.0,7.132e-11
289.5,2.506e-10
290.0,7.751e-10
290.5,1.72e-09
291.0,4.055e-09
291.5,1.301e-08
292.0,3.441e-08
292.5,5.459e-08
293.0,1.374e-07
293.5,4.193e-07
294.0,7.772e-07
294.5,1.037e-06
295.0,2.079e-06
295.5,5.484e-06
296.0,1.074e-05
296.5,1.525e-05
297.0,2.09e-05
297.5,5.706e-05
298.0,9.13e-05
298.5,9.295e-05
299.0,0.0002074
299.5,0.0003511
300.0,0.0003909
300.5,0.0005738
301.0,0.001062
301.5,0.001736
302.0,0.001508
302.5,0.002892
303.0,0.005067
303.5,0.006276
304.0,0.005825
304.5,0.008413
305.0,0.01218
305.5,0.01355
306.0,0.01297
306.5,0.01585
307.0,0.02256
307.5,0.02882
308.0,0.03025
308.5,0.03504
309.0,0.03406
309.5,0.03793
310.0,0.03763
310.5,0.06057
311.0,0.07522
311.5,0.07229
312.0,0.07062
312.5,0.08461
313.0,0.09102
313.5,0.08907
314.0,0.1093
314.5,0.0945
315.0,0.1236
315.5,0.1047
316.0,0.08958
316.5,0.1264
317.0,0.1569
317.5,0.1642
318.0,0.1265
318.5,0.1534
319.0,0.1799
319.5,0.1495
320.0,0.1812
320.5,0.2213
321.0,0.1928
321.5,0.1845
322.0,0.2013
322.5,0.1749
323.0,0.1715
323.5,0.2078
324.0,0.242
324.5,0.2472
325.0,0.2153
325.5,0.2734
326.0,0.3331
326.5,0.3308
327.0,0.3307
327.5,0.3207
328.0,0.2887
328.5,0.2994
329.0,0.3547
329.5,0.4013
330.0,0.4059
330.5,0.3276
331.0,0.3347
331.5,0.3381
332.0,0.362
332.5,0.3566
333.0,0.3564
333.5,0.3247
334.0,0.3331
334.5,0.3814
335.0,0.3569
335.5,0.4168
336.0,0.2884
336.5,0.3385
337.0,0.2786
337.5,0.3469
338.0,0.3366
338.5,0.3885
339.0,0.3844
339.5,0.3698
340.0,0.4347
340.5,0.3916
341.0,0.382
341.5,0.3506
342.0,0.419
342.5,0.392
343.0,0.4312
343.5,0.4061
344.0,0.3001
344.5,0.3032
345.0,0.4011
345.5,0.4095
346.0,0.348
346.5,0.394
347.0,0.423
347.5,0.3421
348.0,0.3899
348.5,0.3897
349.0,0.3615
349.5,0.358
350.0,0.4427
350.5,0.467
351.0,0.4173
351.5,0.4056
352.0,0.4356
352.5,0.3399
353.0,0.4281
353.5,0.4578
354.0,0.4753
354.5,0.482
355.0,0.4804
355.5,0.434
356.0,0.4541
356.5,0.3878
357.0,0.3204
357.5,0.3923
358.0,0.3109
358.5,0.2657
359.0,0.3717
359.5,0.4737
360.0,0.5022
360.5,0.4014
361.0,0.3659
361.5,0.4213
362.0,0.3644
362.5,0.5043
363.0,0.4529
363.5,0.4172
364.0,0.5103
364.5,0.4362
365.0,0.4443
365.5,0.5576
366.0,0.5908
366.5,0.5552
367.0,0.5407
367.5,0.5612
368.0,0.4911
368.5,0.4956
369.0,0.5352
369.5,0.5705
370.0,0.6082
370.5,0.4721
371.0,0.5045
371.5,0.6312
372.0,0.419
372.5,0.5024
373.0,0.5111
373.5,0.3326
374.0,0.4833
374.5,0.4003
375.0,0.3891
375.5,0.581
376.0,0.4817
376.5,0.4992
377.0,0.5286
377.5,0.6184
378.0,0.6704
378.5,0.6337
379.0,0.523
379.5,0.4778
380.0,0.4968
380.5,0.6018
381.0,0.6031
381.5,0.4781
382.0,0.4246
382.5,0.362
383.0,0.3352
383.5,0.3229
384.0,0.3562
384.5,0.5239
385.0,0.5196
385.5,0.484
386.0,0.4145
386.5,0.5446
387.0,0.4525
387.5,0.5083
388.0,0.4694
388.5,0.464
389.0,0.5009
389.5,0.6068
390.0,0.609
390.5,0.5605
391.0,0.6598
391.5,0.6731
392.0,0.5669
392.5,0.5076
393.0,0.2825
393.5,0.2053
394.0,0.4179
394.5,0.5313
395.0,0.6484
395.5,0.6587
396.0,0.5712
396.5,0.3339
397.0,0.2506
397.5,0.5097
398.0,0.7139
398.5,0.7379
399.0,0.7991
399.5,0.7965
400.0,0.8272
401.0,0.8399
402.0,0.8862
403.0,0.8419
404.0,0.8291
405.0,0.829
406.0,0.8156
407.0,0.8025
408.0,0.834
409.0,0.8927
410.0,0.7801
411.0,0.845
412.0,0.9076
413.0,0.8852
414.0,0.8961
415.0,0.8985
416.0,0.9143
417.0,0.8919
418.0,0.8754
419.0,0.887
420.0,0.8831
421.0,0.924
422.0,0.8783
423.0,0.858
424.0,0.9075
425.0,0.9059
426.0,0.8824
427.0,0.8659
428.0,0.8436
429.0,0.799
430.0,0.6993
431.0,0.6932
432.0,0.8949
433.0,0.8999
434.0,0.8356
435.0,0.8728
436.0,0.9834
437.0,0.9701
438.0,0.8834
439.0,0.9138
440.0,0.9429
441.0,0.977
442.0,1.048
443.0,1.021
444.0,1.043
445.0,1.02
446.0,0.9736
447.0,1.052
448.0,1.069
449.0,1.073
450.0,1.103
451.0,1.144
452.0,1.102
453.0,1.037
454.0,1.082
455.0,1.089
456.0,1.115
457.0,1.133
458.0,1.095
459.0,1.089
460.0,1.092
461.0,1.117
462.0,1.126
463.0,1.118
464.0,1.099
465.0,1.085
466.0,1.096
467.0,1.076
468.0,1.088
469.0,1.094
470.0,1.059
471.0,1.058
472.0,1.115
473.0,1.1
474.0,1.102
475.0,1.112
476.0,1.079
477.0,1.082
478.0,1.112
479.0,1.105
480.0,1.107
481.0,1.127
482.0,1.133
483.0,1.119
484.0,1.096
485.0,1.044
486.0,0.9125
487.0,0.9562
488.0,1.049
489.0,1.052
490.0,1.107
491.0,1.088
492.0,1.027
493.0,1.061
494.0,1.072
495.0,1.081
496.0,1.087
497.0,1.104
498.0,1.053
499.0,1.066
500.0,1.035
501.0,1.016
502.0,1.002
503.0,1.043
504.0,1.018
505.0,1.054
506.0,1.088
507.0,1.035
508.0,1.002
509.0,1.03
510.0,1.025
511.0,1.052
512.0,1.063
513.0,1.006
514.0,0.9994
515.0,0.9894
516.0,0.987
517.0,0.877
518.0,0.922
519.0,0.9671
520.0,1.002
521.0,1.012
522.0,1.013
523.0,0.9947
524.0,1.03
525.0,1.043
526.0,0.9962
527.0,0.9389
528.0,0.9931
529.0,1.047
530.0,1.032
531.0,1.047
532.0,1.011
533.0,0.9818
534.0,1.011
535.0,1.033
536.0,1.042
537.0,1.001
538.0,1.018
539.0,1.01
540.0,0.9683
541.0,0.975
542.0,1.006
543.0,0.9949
544.0,1.012
545.0,1.009
546.0,1.014
547.0,1.013
548.0,1.001
549.0,1.004
550.0,1.016
551.0,1.003
552.0,1.01
553.0,0.9924
554.0,1.016
555.0,1.018
556.0,1.005
557.0,0.9739
558.0,0.9667
559.0,0.9488
560.0,0.9607
561.0,0.9732
562.0,0.9664
563.0,0.9929
564.0,0.966
565.0,0.9578
566.0,0.9439
567.0,0.9619
568.0,0.9537
569.0,0.9318
570.0,0.9315
571.0,0.9257
572.0,0.9484
573.0,0.9586
574.0,0.9557
575.0,0.938
576.0,0.9295
577.0,0.9395
578.0,0.9252
579.0,0.9285
580.0,0.9456
581.0,0.95
582.0,0.9676
583.0,0.9697
584.0,0.9779
585.0,0.9539
586.0,0.9343
587.0,0.955
588.0,0.9328
589.0,0.8283
590.0,0.8661
591.0,0.9153
592.0,0.9045
593.0,0.917
594.0,0.911
595.0,0.8892
596.0,0.9227
597.0,0.913
598.0,0.9103
599.0,0.9108
600.0,0.9118
601.0,0.904
602.0,0.8979
603.0,0.9126
604.0,0.9276
605.0,0.9227
606.0,0.9188
607.0,0.9277
608.0,0.9173
609.0,0.9187
610.0,0.912
611.0,0.9167
612.0,0.9139
613.0,0.9023
614.0,0.8899
615.0,0.9091
616.0,0.8791
617.0,0.8772
618.0,0.9109
619.0,0.9016
620.0,0.9073
621.0,0.9083
622.0,0.8978
623.0,0.8843
624.0,0.869
625.0,0.867
626.0,0.8799
627.0,0.8901
628.0,0.8353
629.0,0.8704
630.0,0.8505
631.0,0.8683
632.0,0.8577
633.0,0.8832
634.0,0.8742
635.0,0.8876
636.0,0.8756
637.0,0.8898
638.0,0.898
639.0,0.8878
640.0,0.879
641.0,0.8783
642.0,0.8741
643.0,0.8859
644.0,0.8829
645.0,0.8844
646.0,0.8642
647.0,0.8551
648.0,0.856
649.0,0.8395
650.0,0.8421
651.0,0.8783
652.0,0.8433
653.0,0.8666
654.0,0.8569
655.0,0.8257
656.0,0.7313
657.0,0.7509
658.0,0.8411
659.0,0.8469
660.0,0.8504
661.0,0.8563
662.0,0.8583
663.0,0.8412
664.0,0.8508
665.0,0.8512
666.0,0.8517
667.0,0.8508
668.0,0.851
669.0,0.8641
670.0,0.8603
671.0,0.86
672.0,0.8526
673.0,0.8654
674.0,0.8621
675.0,0.8542
676.0,0.86
677.0,0.8514
678.0,0.8538
679.0,0.8399
680.0,0.8466
681.0,0.841
682.0,0.8399
683.0,0.8383
684.0,0.8342
685.0,0.8412
686.0,0.8363
687.0,0.5725
688.0,0.6627
689.0,0.6648
690.0,0.6946
691.0,0.7279
692.0,0.7519
693.0,0.746
694.0,0.7398
695.0,0.7683
696.0,0.7694
697.0,0.8139
698.0,0.8013
699.0,0.7838
700.0,0.7744
701.0,0.7671
702.0,0.7717
703.0,0.7731
704.0,0.7968
705.0,0.798
706.0,0.7969
707.0,0.7974
708.0,0.7991
709.0,0.7996
710.0,0.7999
711.0,0.7986
712.0,0.7959
713.0,0.7882
714.0,0.7911
715.0,0.7668
716.0,0.7674
717.0,0.6719
718.0,0.6181
719.0,0.5668
720.0,0.5942
721.0,0.6521
722.0,0.7419
723.0,0.6928
724.0,0.6267
725.0,0.6175
726.0,0.646
727.0,0.6537
728.0,0.6162
729.0,0.637
730.0,0.6741
731.0,0.6456
732.0,0.6882
733.0,0.7263
734.0,0.7429
735.0,0.7278
736.0,0.7269
737.0,0.7298
738.0,0.7395
739.0,0.725
740.0,0.7434
741.0,0.7357
742.0,0.7362
743.0,0.7548
744.0,0.7525
745.0,0.7525
746.0,0.7559
747.0,0.7576
748.0,0.756
749.0,0.7473
750.0,0.7469
751.0,0.7393
752.0,0.7424
753.0,0.7462
754.0,0.7479
755.0,0.7436
756.0,0.7433
757.0,0.7444
758.0,0.7351
759.0,0.7211
760.0,0.1356
761.0,0.07422
762.0,0.3854
763.0,0.2016
764.0,0.2951
765.0,0.3855
766.0,0.4657
767.0,0.58
768.0,0.6633
769.0,0.6759
770.0,0.6974
771.0,0.7023
772.0,0.7036
773.0,0.7085
774.0,0.705
775.0,0.6996
776.0,0.7081
777.0,0.6988
778.0,0.6945
779.0,0.6951
780.0,0.6912
781.0,0.6919
782.0,0.6962
783.0,0.6841
784.0,0.6873
785.0,0.6823
786.0,0.6899
787.0,0.6785
788.0,0.6703
789.0,0.6702
790.0,0.6533
791.0,0.658
792.0,0.653
793.0,0.6426
794.0,0.6526
795.0,0.6639
796.0,0.6447
797.0,0.6456
798.0,0.6632
799.0,0.6592
800.0,0.6481
801.0,0.6463
802.0,0.6445
803.0,0.6397
804.0,0.6404
805.0,0.6381
806.0,0.6554
807.0,0.6476
808.0,0.6481
809.0,0.6364
810.0,0.6315
811.0,0.633
812.0,0.6157
813.0,0.6034
814.0,0.5338
815.0,0.5304
816.0,0.494
817.0,0.5027
818.0,0.4846
819.0,0.5392
820.0,0.5088
821.0,0.5913
822.0,0.575
823.0,0.3964
824.0,0.5595
825.0,0.5812
826.0,0.5602
827.0,0.5901
828.0,0.5033
829.0,0.5566
830.0,0.5496
831.0,0.5514
832.0,0.5351
833.0,0.5677
834.0,0.5486
835.0,0.6006
836.0,0.5762
837.0,0.6022
838.0,0.584
839.0,0.593
840.0,0.6058
841.0,0.5974
842.0,0.5984
843.0,0.5976
844.0,0.5895
845.0,0.6092
846.0,0.6064
847.0,0.595
848.0,0.5915
849.0,0.5747
850.0,0.5506
851.0,0.5831
852.0,0.5789
853.0,0.5571
854.0,0.4811
855.0,0.5285
856.0,0.5776
857.0,0.5903
858.0,0.586
859.0,0.5865
860.0,0.5875
861.0,0.5843
862.0,0.5934
863.0,0.6075
864.0,0.5771
865.0,0.572
866.0,0.5143
867.0,0.5368
868.0,0.5841
869.0,0.572
870.0,0.5883
871.0,0.5803
872.0,0.5782
873.0,0.577
874.0,0.5702
875.0,0.5586
876.0,0.5644
877.0,0.5701
878.0,0.5763
879.0,0.5675
880.0,0.5553
881.0,0.547
882.0,0.5589
883.0,0.5606
884.0,0.558
885.0,0.5623
886.0,0.5361
887.0,0.5416
888.0,0.5497
889.0,0.5558
890.0,0.5513
891.0,0.5503
892.0,0.5347
893.0,0.5183
894.0,0.5007
895.0,0.474
896.0,0.4469
897.0,0.385
898.0,0.4195
899.0,0.3204
900.0,0.4288
901.0,0.3358
902.0,0.3923
903.0,0.3967
904.0,0.497
905.0,0.4802
906.0,0.4497
907.0,0.367
908.0,0.374
909.0,0.4044
910.0,0.359
911.0,0.3818
912.0,0.3989
913.0,0.3644
914.0,0.3611
915.0,0.3913
916.0,0.3316
917.0,0.4194
918.0,0.34
919.0,0.4267
920.0,0.4303
921.0,0.4475
922.0,0.4009
923.0,0.4322
924.0,0.411
925.0,0.4021
926.0,0.4065
927.0,0.4542
928.0,0.3355
929.0,0.3068
930.0,0.2419
931.0,0.2291
932.0,0.1657
933.0,0.1351
934.0,0.07481
935.0,0.1379
936.0,0.08658
937.0,0.0878
938.0,0.1078
939.0,0.222
940.0,0.2665
941.0,0.2018
942.0,0.2333
943.0,0.1539
944.0,0.1616
945.0,0.208
946.0,0.1064
947.0,0.2091
948.0,0.1536
949.0,0.2793
950.0,0.07843
951.0,0.2749
952.0,0.1484
953.0,0.1912
954.0,0.2339
955.0,0.1933
956.0,0.1874
957.0,0.1487
958.0,0.2649
959.0,0.211
960.0,0.2364
961.0,0.265
962.0,0.2507
963.0,0.2887
964.0,0.2646
965.0,0.2876
966.0,0.2877
967.0,0.2865
968.0,0.3829
969.0,0.4001
970.0,0.3676
971.0,0.4202
972.0,0.4021
973.0,0.3506
974.0,0.3328
975.0,0.3453
976.0,0.3282
977.0,0.3729
978.0,0.3545
979.0,0.3711
980.0,0.349
981.0,0.4178
982.0,0.3997
983.0,0.3838
984.0,0.4302
985.0,0.3981
986.0,0.4377
987.0,0.4293
988.0,0.4285
989.0,0.4362
990.0,0.4259
991.0,0.4376
992.0,0.4401
993.0,0.4304
994.0,0.4399
995.0,0.4394
996.0,0.4374
997.0,0.4381
998.0,0.436
999.0,0.4344
1000.0,0.4314
1001.0,0.4367
1002.0,0.4248
1003.0,0.429
1004.0,0.4186
1005.0,0.4032
1006.0,0.419
1007.0,0.4278
1008.0,0.4255
1009.0,0.4233
1010.0,0.4215
1011.0,0.4257
1012.0,0.422
1013.0,0.4246
1014.0,0.4216
1015.0,0.4189
1016.0,0.417
1017.0,0.418
1018.0,0.4165
1019.0,0.4076
1020.0,0.4143
1021.0,0.4137
1022.0,0.4105
1023.0,0.4148
1024.0,0.4095
1025.0,0.4145
1026.0,0.4128
1027.0,0.4118
1028.0,0.411
1029.0,0.4061
1030.0,0.4089
1031.0,0.4073
1032.0,0.4061
1033.0,0.3999
1034.0,0.4
1035.0,0.4012
1036.0,0.4033
1037.0,0.3967
1038.0,0.3985
1039.0,0.3983
1040.0,0.3967
1041.0,0.3982
1042.0,0.3955
1043.0,0.3942
1044.0,0.3956
1045.0,0.3902
1046.0,0.3859
1047.0,0.3894
1048.0,0.3915
1049.0,0.3901
1050.0,0.3883
1051.0,0.3878
1052.0,0.3862
1053.0,0.3832
1054.0,0.384
1055.0,0.3842
1056.0,0.3829
1057.0,0.3817
1058.0,0.3723
1059.0,0.3727
1060.0,0.3721
1061.0,0.3717
1062.0,0.3737
1063.0,0.37
1064.0,0.3744
1065.0,0.3717
1066.0,0.3643
1067.0,0.369
1068.0,0.361
1069.0,0.3498
1070.0,0.3617
1071.0,0.3673
1072.0,0.3631
1073.0,0.3578
1074.0,0.3671
1075.0,0.3488
1076.0,0.3668
1077.0,0.3603
1078.0,0.3535
1079.0,0.3609
1080.0,0.3547
1081.0,0.3434
1082.0,0.3488
1083.0,0.3499
1084.0,0.3426
1085.0,0.3555
1086.0,0.3246
1087.0,0.3349
1088.0,0.3495
1089.0,0.3389
1090.0,0.3315
1091.0,0.3484
1092.0,0.3475
1093.0,0.2949
1094.0,0.318
1095.0,0.3073
1096.0,0.2943
1097.0,0.3394
1098.0,0.2897
1099.0,0.3022
1100.0,0.281
1101.0,0.2845
1102.0,0.2718
1103.0,0.2692
1104.0,0.2696
1105.0,0.2953
1106.0,0.2264
1107.0,0.2805
1108.0,0.2381
1109.0,0.2385
1110.0,0.2781
1111.0,0.1891
1112.0,0.2366
1113.0,0.151
1114.0,0.1688
1115.0,0.1399
1116.0,0.1119
1117.0,0.04129
1118.0,0.1217
1119.0,0.06053
1120.0,0.0762
1121.0,0.1011
1122.0,0.04263
1123.0,0.06886
1124.0,0.05812
1125.0,0.07579
1126.0,0.02647
1127.0,0.08549
1128.0,0.05124
1129.0,0.05436
1130.0,0.0358
1131.0,0.1619
1132.0,0.127
1133.0,0.08063
1134.0,0.02067
1135.0,0.007741
1136.0,0.06731
1137.0,0.1591
1138.0,0.1121
1139.0,0.1669
1140.0,0.1395
1141.0,0.1065
1142.0,0.1225
1143.0,0.1738
1144.0,0.06084
1145.0,0.07777
1146.0,0.08388
1147.0,0.02959
1148.0,0.1504
1149.0,0.1202
1150.0,0.06542
1151.0,0.1112
1152.0,0.1368
1153.0,0.1332
1154.0,0.07538
1155.0,0.1741
1156.0,0.1568
1157.0,0.1758
1158.0,0.1739
1159.0,0.1875
1160.0,0.1604
1161.0,0.1972
1162.0,0.1982
1163.0,0.2668
1164.0,0.2292
1165.0,0.2166
1166.0,0.2148
1167.0,0.2338
1168.0,0.2364
1169.0,0.2419
1170.0,0.2626
1171.0,0.2561
1172.0,0.2605
1173.0,0.262
1174.0,0.1882
1175.0,0.2557
1176.0,0.2805
1177.0,0.2697
1178.0,0.2035
1179.0,0.2828
1180.0,0.2531
1181.0,0.2611
1182.0,0.1812
1183.0,0.257
1184.0,0.2412
1185.0,0.2331
1186.0,0.2752
1187.0,0.2625
1188.0,0.1844
1189.0,0.2446
1190.0,0.2689
1191.0,0.256
1192.0,0.2726
1193.0,0.2615
1194.0,0.2693
1195.0,0.2552
1196.0,0.2461
1197.0,0.2692
1198.0,0.2466
1199.0,0.2109
1200.0,0.2582
1201.0,0.2494
1202.0,0.2477
1203.0,0.2457
1204.0,0.2155
1205.0,0.2532
1206.0,0.279
1207.0,0.2472
1208.0,0.243
1209.0,0.2479
1210.0,0.258
1211.0,0.2461
1212.0,0.2437
1213.0,0.2701
1214.0,0.2493
1215.0,0.2447
1216.0,0.2692
1217.0,0.2623
1218.0,0.2671
1219.0,0.2639
1220.0,0.2673
1221.0,0.2698
1222.0,0.2629
1223.0,0.2606
1224.0,0.2592
1225.0,0.2681
1226.0,0.2697
1227.0,0.2495
1228.0,0.271
1229.0,0.2698
1230.0,0.2653
1231.0,0.2724
1232.0,0.2708
1233.0,0.262
1234.0,0.2721
1235.0,0.2704
1236.0,0.2723
1237.0,0.2688
1238.0,0.2714
1239.0,0.2679
1240.0,0.2689
1241.0,0.2678
1242.0,0.2671
1243.0,0.2649
1244.0,0.2668
1245.0,0.268
1246.0,0.2664
1247.0,0.2654
1248.0,0.2653
1249.0,0.266
1250.0,0.2645
1251.0,0.2612
1252.0,0.2611
1253.0,0.2592
1254.0,0.2567
1255.0,0.2609
1256.0,0.2539
1257.0,0.2526
1258.0,0.257
1259.0,0.2482
1260.0,0.2495
1261.0,0.2361
1262.0,0.2294
1263.0,0.2298
1264.0,0.2129
1265.0,0.2283
1266.0,0.2202
1267.0,0.2237
1268.0,0.2127
1269.0,0.1353
1270.0,0.223
1271.0,0.2352
1272.0,0.2359
1273.0,0.2335
1274.0,0.2342
1275.0,0.2374
1276.0,0.2396
1277.0,0.241
1278.0,0.2454
1279.0,0.2432
1280.0,0.2401
1281.0,0.229
1282.0,0.2205
1283.0,0.2375
1284.0,0.2432
1285.0,0.2448
1286.0,0.2479
1287.0,0.2443
1288.0,0.2442
1289.0,0.2369
1290.0,0.242
1291.0,0.2453
1292.0,0.2313
1293.0,0.2408
1294.0,0.2391
1295.0,0.2381
1296.0,0.2278
1297.0,0.2159
1298.0,0.2316
1299.0,0.241
1300.0,0.2053
1301.0,0.2113
1302.0,0.2309
1303.0,0.2024
1304.0,0.1738
1305.0,0.2262
1306.0,0.2263
1307.0,0.1771
1308.0,0.2025
1309.0,0.2247
1310.0,0.1738
1311.0,0.1945
1312.0,0.1894
1313.0,0.1859
1314.0,0.1668
1315.0,0.1649
1316.0,0.1916
1317.0,0.1816
1318.0,0.1969
1319.0,0.1552
1320.0,0.1501
1321.0,0.1744
1322.0,0.1763
1323.0,0.1336
1324.0,0.1522
1325.0,0.1889
1326.0,0.1627
1327.0,0.1554
1328.0,0.1343
1329.0,0.1016
1330.0,0.1319
1331.0,0.08042
1332.0,0.08278
1333.0,0.115
1334.0,0.09704
1335.0,0.1331
1336.0,0.1057
1337.0,0.09367
1338.0,0.1014
1339.0,0.1008
1340.0,0.09785
1341.0,0.09601
1342.0,0.1008
1343.0,0.06915
1344.0,0.04136
1345.0,0.0596
1346.0,0.03014
1347.0,0.03074
1348.0,0.002095
1349.0,0.007425
1350.0,0.007636
1351.0,0.001941
1352.0,0.0005514
1353.0,2.976e-05
1354.0,9.892e-05
1355.0,8.961e-07
1356.0,1.46e-05
1357.0,2.221e-05
1358.0,1.056e-06
1359.0,1.455e-07
1360.0,4.989e-07
1361.0,6.722e-10
1362.0,1.995e-12
1363.0,6.942e-07
1364.0,2.889e-07
1365.0,7.764e-13
1366.0,2.966e-06
1367.0,1.196e-06
1368.0,7.359e-15
1369.0,1.086e-07
1370.0,5.56e-08
1371.0,3.307e-09
1372.0,6.583e-07
1373.0,1.254e-05
1374.0,5.604e-05
1375.0,0.0001021
1376.0,8.884e-05
1377.0,4.106e-05
1378.0,0.0003954
1379.0,1.728e-05
1380.0,2.553e-05
1381.0,6.835e-07
1382.0,6.001e-07
1383.0,9.305e-09
1384.0,1.247e-07
1385.0,5.447e-07
1386.0,5.489e-07
1387.0,5.96e-05
1388.0,1.178e-06
1389.0,0.0001937
1390.0,0.0001668
1391.0,0.0001122
1392.0,7.398e-06
1393.0,3.845e-05
1394.0,2.119e-05
1395.0,1.633e-07
1396.0,9.451e-10
1397.0,1.556e-05
1398.0,0.0004461
1399.0,0.0002828
1400.0,4.289e-10
1401.0,1.671e-09
1402.0,0.0007478
1403.0,0.000949
1404.0,0.0002905
1405.0,8.208e-08
1406.0,0.0007682
1407.0,6.71e-05
1408.0,0.0006267
1409.0,0.0002161
1410.0,0.0001701
1411.0,0.0008331
1412.0,0.001111
1413.0,0.01109
1414.0,0.0001338
1415.0,6.503e-05
1416.0,0.018
1417.0,0.005484
1418.0,0.006253
1419.0,0.0009719
1420.0,0.003827
1421.0,0.004138
1422.0,0.02349
1423.0,0.004558
1424.0,0.008539
1425.0,0.01258
1426.0,0.01427
1427.0,0.02624
1428.0,0.001975
1429.0,0.01961
1430.0,0.03347
1431.0,0.03678
1432.0,0.001556
1433.0,0.02336
1434.0,0.01186
1435.0,0.01179
1436.0,0.02287
1437.0,0.01752
1438.0,0.007367
1439.0,0.03116
1440.0,0.02333
1441.0,0.01771
1442.0,0.01965
1443.0,0.02481
1444.0,0.03445
1445.0,0.02682
1446.0,0.01202
