interpolation:linear
wavelength,value
280.0,4.145e-21
280.5,1.285e-19
281.0,6.759e-19
281.5,4.501e-19
282.0,1.227e-18
282.5,3.188e-18
283.0,1.022e-17
283.5,1.668e-17
284.0,2.675e-16
284.5,7.677e-16
285.0,1.673e-15
285.5,8.287e-15
286.0,3.328e-14
286.5,1.473e-13
287.0,4.174e-13
287.5,1.578e-12
288.0,4.086e-12
288.5,1.389e-11
289.0,4.015e-11
289.5,1.291e-10
290.0,3.726e-10
290.5,7.812e-10
291.0,1.723e-09
291.5,5.419e-09
292.0,1.184e-08
292.5,1.809e-08
293.0,4.33e-08
293.5,1.227e-07
294.0,2.142e-07
294.5,2.781e-07
295.0,5.259e-07
295.5,1.423e-06
296.0,2.85e-06
296.5,4.15e-06
297.0,5.821e-06
297.5,1.653e-05
298.0,2.744e-05
298.5,2.88e-05
299.0,6.633e-05
299.5,0.0001192
300.0,0.0001377
300.5,0.0002104
301.0,0.0004188
301.5,0.0007401
302.0,0.0006743
302.5,0.001323
303.0,0.002389
303.5,0.003017
304.0,0.00284
304.5,0.004252
305.0,0.006467
305.5,0.007418
306.0,0.007184
306.5,0.008951
307.0,0.01328
307.5,0.01766
308.0,0.01865
308.5,0.02202
309.0,0.02163
309.5,0.0247
310.0,0.02479
310.5,0.04014
311.0,0.05035
311.5,0.04859
312.0,0.04849
312.5,0.05891
313.0,0.06385
313.5,0.06207
314.0,0.07745
314.5,0.06848
315.0,0.08995
315.5,0.07538
316.0,0.06567
316.5,0.09409
317.0,0.1168
317.5,0.1217
318.0,0.09479
318.5,0.1173
319.0,0.139
319.5,0.1136
320.0,0.1374
320.5,0.1713
321.0,0.152
321.5,0.1457
322.0,0.1559
322.5,0.1357
323.0,0.1348
323.5,0.1652
324.0,0.1928
324.5,0.196
325.0,0.1696
325.5,0.2177
326.0,0.266
326.5,0.266
327.0,0.2653
327.5,0.2565
328.0,0.2289
328.5,0.24
329.0,0.2867
329.5,0.3253
330.0,0.3284
330.5,0.2634
331.0,0.2685
331.5,0.2726
332.0,0.294
332.5,0.2906
333.0,0.2899
333.5,0.2628
334.0,0.2694
334.5,0.3104
335.0,0.2914
335.5,0.3404
336.0,0.2356
336.5,0.276
337.0,0.2267
337.5,0.2821
338.0,0.2751
338.5,0.3175
339.0,0.3143
339.5,0.3025
340.0,0.3555
340.5,0.3205
341.0,0.3126
341.5,0.2871
342.0,0.3431
342.5,0.3211
343.0,0.3532
343.5,0.3326
344.0,0.2459
344.5,0.2484
345.0,0.3288
345.5,0.3358
346.0,0.2854
346.5,0.3233
347.0,0.3471
347.5,0.2807
348.0,0.3201
348.5,0.32
349.0,0.2969
349.5,0.2941
350.0,0.3638
350.5,0.3838
351.0,0.343
351.5,0.3334
352.0,0.3582
352.5,0.2796
353.0,0.3522
353.5,0.3767
354.0,0.3911
354.5,0.3967
355.0,0.3955
355.5,0.3574
356.0,0.374
356.5,0.3194
357.0,0.264
357.5,0.3232
358.0,0.2562
358.5,0.219
359.0,0.3063
359.5,0.3904
360.0,0.414
360.5,0.3309
361.0,0.3018
361.5,0.3476
362.0,0.3007
362.5,0.4163
363.0,0.374
363.5,0.3446
364.0,0.4216
364.5,0.3604
365.0,0.3672
365.5,0.4609
366.0,0.4885
366.5,0.4591
367.0,0.4472
367.5,0.4642
368.0,0.4063
368.5,0.4101
369.0,0.443
369.5,0.4723
370.0,0.5036
370.5,0.391
371.0,0.4179
371.5,0.5229
372.0,0.3471
372.5,0.4163
373.0,0.4236
373.5,0.2757
374.0,0.4007
374.5,0.3319
375.0,0.3227
375.5,0.4819
376.0,0.3996
376.5,0.4142
377.0,0.4386
377.5,0.5133
378.0,0.5565
378.5,0.5261
379.0,0.4342
379.5,0.3967
380.0,0.4125
380.5,0.4998
381.0,0.501
381.5,0.3973
382.0,0.3529
382.5,0.301
383.0,0.2787
383.5,0.2685
384.0,0.2963
384.5,0.4359
385.0,0.4323
385.5,0.4027
386.0,0.345
386.5,0.4533
387.0,0.3768
387.5,0.4233
388.0,0.3909
388.5,0.3865
389.0,0.4173
389.5,0.5056
390.0,0.5075
390.5,0.4672
391.0,0.55
391.5,0.5611
392.0,0.4727
392.5,0.4233
393.0,0.2356
393.5,0.1713
394.0,0.3487
394.5,0.4434
395.0,0.5412
395.5,0.5498
396.0,0.4768
396.5,0.2788
397.0,0.2093
397.5,0.4257
398.0,0.5963
398.5,0.6164
399.0,0.6677
399.5,0.6656
400.0,0.6913
401.0,0.701
402.0,0.7399
403.0,0.7032
404.0,0.6926
405.0,0.6927
406.0,0.6818
407.0,0.671
408.0,0.6974
409.0,0.7467
410.0,0.6527
411.0,0.7072
412.0,0.7599
413.0,0.7412
414.0,0.7506
415.0,0.7528
416.0,0.7663
417.0,0.7476
418.0,0.734
419.0,0.7439
420.0,0.7408
421.0,0.7752
422.0,0.737
423.0,0.7201
424.0,0.7618
425.0,0.7606
426.0,0.7412
427.0,0.7275
428.0,0.7088
429.0,0.6716
430.0,0.5879
431.0,0.5828
432.0,0.7527
433.0,0.757
434.0,0.7031
435.0,0.7344
436.0,0.8277
437.0,0.8168
438.0,0.744
439.0,0.7694
440.0,0.7941
441.0,0.8231
442.0,0.8829
443.0,0.86
444.0,0.8788
445.0,0.8599
446.0,0.8209
447.0,0.8876
448.0,0.9015
449.0,0.9053
450.0,0.9308
451.0,0.9655
452.0,0.9303
453.0,0.8751
454.0,0.9138
455.0,0.9195
456.0,0.9414
457.0,0.9572
458.0,0.9245
459.0,0.9199
460.0,0.9224
461.0,0.9437
462.0,0.9511
463.0,0.9446
464.0,0.9292
465.0,0.9176
466.0,0.9267
467.0,0.9097
468.0,0.9205
469.0,0.9253
470.0,0.8959
471.0,0.8948
472.0,0.9428
473.0,0.9306
474.0,0.9319
475.0,0.9398
476.0,0.9116
477.0,0.9141
478.0,0.9395
479.0,0.9339
480.0,0.9358
481.0,0.9534
482.0,0.9585
483.0,0.9471
484.0,0.9278
485.0,0.884
486.0,0.7729
487.0,0.8101
488.0,0.8888
489.0,0.8915
490.0,0.938
491.0,0.9219
492.0,0.8706
493.0,0.8992
494.0,0.9082
495.0,0.916
496.0,0.9217
497.0,0.9359
498.0,0.8922
499.0,0.9036
500.0,0.8772
501.0,0.861
502.0,0.8488
503.0,0.8832
504.0,0.8603
505.0,0.8915
506.0,0.9203
507.0,0.8758
508.0,0.8486
509.0,0.8725
510.0,0.868
511.0,0.8914
512.0,0.9011
513.0,0.8529
514.0,0.8471
515.0,0.8387
516.0,0.8367
517.0,0.7435
518.0,0.7816
519.0,0.8198
520.0,0.8496
521.0,0.8577
522.0,0.8584
523.0,0.8429
524.0,0.873
525.0,0.8832
526.0,0.8437
527.0,0.7949
528.0,0.8406
529.0,0.886
530.0,0.8732
531.0,0.8862
532.0,0.8557
533.0,0.8306
534.0,0.8552
535.0,0.8739
536.0,0.882
537.0,0.8473
538.0,0.8623
539.0,0.855
540.0,0.8198
541.0,0.825
542.0,0.8508
543.0,0.842
544.0,0.8565
545.0,0.8538
546.0,0.8575
547.0,0.8572
548.0,0.847
549.0,0.8496
550.0,0.8597
551.0,0.8493
552.0,0.8552
553.0,0.8399
554.0,0.86
555.0,0.8617
556.0,0.8504
557.0,0.824
558.0,0.8177
559.0,0.8023
560.0,0.8123
561.0,0.8228
562.0,0.8167
563.0,0.8389
564.0,0.816
565.0,0.8089
566.0,0.7969
567.0,0.8119
568.0,0.8044
569.0,0.7847
570.0,0.7846
571.0,0.78
572.0,0.7984
573.0,0.8069
574.0,0.8042
575.0,0.7891
576.0,0.7819
577.0,0.7905
578.0,0.7788
579.0,0.7821
580.0,0.7973
581.0,0.8017
582.0,0.8172
583.0,0.8194
584.0,0.8266
585.0,0.8065
586.0,0.79
587.0,0.8071
588.0,0.7868
589.0,0.6958
590.0,0.7277
591.0,0.7709
592.0,0.7607
593.0,0.7725
594.0,0.7669
595.0,0.7475
596.0,0.7781
597.0,0.7694
598.0,0.7677
599.0,0.7685
600.0,0.77
601.0,0.7639
602.0,0.7587
603.0,0.7714
604.0,0.7842
605.0,0.7802
606.0,0.7771
607.0,0.7849
608.0,0.7764
609.0,0.7778
610.0,0.7724
611.0,0.7765
612.0,0.7743
613.0,0.7646
614.0,0.7542
615.0,0.7707
616.0,0.7454
617.0,0.744
618.0,0.7727
619.0,0.7649
620.0,0.7697
621.0,0.7704
622.0,0.7613
623.0,0.7496
624.0,0.7368
625.0,0.7352
626.0,0.746
627.0,0.7541
628.0,0.7013
629.0,0.7352
630.0,0.7182
631.0,0.7354
632.0,0.7268
633.0,0.7494
634.0,0.7424
635.0,0.7541
636.0,0.7443
637.0,0.7567
638.0,0.7642
639.0,0.7557
640.0,0.7485
641.0,0.7482
642.0,0.7449
643.0,0.7549
644.0,0.7526
645.0,0.7538
646.0,0.7358
647.0,0.7263
648.0,0.7269
649.0,0.7127
650.0,0.7173
651.0,0.7486
652.0,0.7163
653.0,0.7387
654.0,0.7306
655.0,0.7028
656.0,0.6233
657.0,0.6401
658.0,0.7177
659.0,0.723
660.0,0.7261
661.0,0.7312
662.0,0.7325
663.0,0.7181
664.0,0.7269
665.0,0.7277
666.0,0.7283
667.0,0.7278
668.0,0.7282
669.0,0.7396
670.0,0.7364
671.0,0.7363
672.0,0.7301
673.0,0.7411
674.0,0.7384
675.0,0.7317
676.0,0.7368
677.0,0.7295
678.0,0.7316
679.0,0.7198
680.0,0.7256
681.0,0.7209
682.0,0.7199
683.0,0.7186
684.0,0.715
685.0,0.7212
686.0,0.7168
687.0,0.4626
688.0,0.5484
689.0,0.5506
690.0,0.5796
691.0,0.6125
692.0,0.6368
693.0,0.6314
694.0,0.6262
695.0,0.6537
696.0,0.6546
697.0,0.6968
698.0,0.6859
699.0,0.6682
700.0,0.66
701.0,0.6529
702.0,0.6579
703.0,0.6592
704.0,0.6811
705.0,0.6821
706.0,0.6818
707.0,0.6824
708.0,0.6839
709.0,0.6853
710.0,0.6851
711.0,0.6843
712.0,0.6825
713.0,0.6754
714.0,0.678
715.0,0.6561
716.0,0.6563
717.0,0.5644
718.0,0.5177
719.0,0.4737
720.0,0.4958
721.0,0.5503
722.0,0.6328
723.0,0.5874
724.0,0.5274
725.0,0.5182
726.0,0.5428
727.0,0.5517
728.0,0.5167
729.0,0.5378
730.0,0.569
731.0,0.5439
732.0,0.5836
733.0,0.6195
734.0,0.6347
735.0,0.6213
736.0,0.6205
737.0,0.6229
738.0,0.6337
739.0,0.6212
740.0,0.6378
741.0,0.6317
742.0,0.6325
743.0,0.6487
744.0,0.647
745.0,0.6472
746.0,0.6502
747.0,0.6516
748.0,0.6503
749.0,0.6429
750.0,0.6425
751.0,0.636
752.0,0.6387
753.0,0.642
754.0,0.6434
755.0,0.6398
756.0,0.6395
757.0,0.6404
758.0,0.6324
759.0,0.6189
760.0,0.09022
761.0,0.04506
762.0,0.3015
763.0,0.1425
764.0,0.2213
765.0,0.3015
766.0,0.3773
767.0,0.4835
768.0,0.564
769.0,0.5772
770.0,0.5984
771.0,0.604
772.0,0.6054
773.0,0.6097
774.0,0.6068
775.0,0.6023
776.0,0.6096
777.0,0.6016
778.0,0.5979
779.0,0.5984
780.0,0.5951
781.0,0.5957
782.0,0.5994
783.0,0.589
784.0,0.5919
785.0,0.5874
786.0,0.5939
787.0,0.5829
788.0,0.5753
789.0,0.5751
790.0,0.5589
791.0,0.5646
792.0,0.5605
793.0,0.5514
794.0,0.5617
795.0,0.571
796.0,0.5522
797.0,0.5528
798.0,0.5701
799.0,0.5663
800.0,0.5561
801.0,0.5541
802.0,0.5526
803.0,0.5482
804.0,0.5491
805.0,0.5477
806.0,0.5637
807.0,0.5567
808.0,0.5573
809.0,0.5464
810.0,0.5416
811.0,0.5417
812.0,0.5254
813.0,0.5139
814.0,0.4495
815.0,0.4468
816.0,0.4156
817.0,0.4235
818.0,0.407
819.0,0.4573
820.0,0.4298
821.0,0.5057
822.0,0.4907
823.0,0.3285
824.0,0.4752
825.0,0.4968
826.0,0.477
827.0,0.5044
828.0,0.4246
829.0,0.4743
830.0,0.4677
831.0,0.4695
832.0,0.4545
833.0,0.4851
834.0,0.4669
835.0,0.5152
836.0,0.4917
837.0,0.5167
838.0,0.4999
839.0,0.5091
840.0,0.5204
841.0,0.5127
842.0,0.5143
843.0,0.5146
844.0,0.5071
845.0,0.5246
846.0,0.5224
847.0,0.5128
848.0,0.5094
849.0,0.4949
850.0,0.4742
851.0,0.5018
852.0,0.4984
853.0,0.48
854.0,0.4142
855.0,0.4554
856.0,0.4975
857.0,0.5088
858.0,0.505
859.0,0.5055
860.0,0.5065
861.0,0.5037
862.0,0.5116
863.0,0.5237
864.0,0.4976
865.0,0.4932
866.0,0.4435
867.0,0.4628
868.0,0.5037
869.0,0.4932
870.0,0.5073
871.0,0.5004
872.0,0.4986
873.0,0.4976
874.0,0.4917
875.0,0.4817
876.0,0.4867
877.0,0.4917
878.0,0.497
879.0,0.4893
880.0,0.4788
881.0,0.4715
882.0,0.4817
883.0,0.4833
884.0,0.4811
885.0,0.4847
886.0,0.4615
887.0,0.4667
888.0,0.4734
889.0,0.4792
890.0,0.4746
891.0,0.4741
892.0,0.4597
893.0,0.4446
894.0,0.4274
895.0,0.402
896.0,0.378
897.0,0.3222
898.0,0.353
899.0,0.2656
900.0,0.3629
901.0,0.2784
902.0,0.3306
903.0,0.3326
904.0,0.4242
905.0,0.4088
906.0,0.3819
907.0,0.3065
908.0,0.3132
909.0,0.341
910.0,0.2984
911.0,0.3201
912.0,0.3352
913.0,0.3026
914.0,0.3007
915.0,0.326
916.0,0.2752
917.0,0.3526
918.0,0.282
919.0,0.36
920.0,0.3656
921.0,0.3805
922.0,0.3377
923.0,0.3677
924.0,0.3458
925.0,0.3383
926.0,0.3418
927.0,0.3851
928.0,0.2756
929.0,0.2497
930.0,0.1932
931.0,0.1834
932.0,0.1289
933.0,0.1031
934.0,0.05316
935.0,0.1069
936.0,0.06456
937.0,0.06521
938.0,0.08104
939.0,0.1777
940.0,0.216
941.0,0.16
942.0,0.1871
943.0,0.1206
944.0,0.1293
945.0,0.1656
946.0,0.08098
947.0,0.1654
948.0,0.1211
949.0,0.2247
950.0,0.05753
951.0,0.2219
952.0,0.1149
953.0,0.1512
954.0,0.1886
955.0,0.1533
956.0,0.1509
957.0,0.1147
958.0,0.2181
959.0,0.1696
960.0,0.1901
961.0,0.2163
962.0,0.2043
963.0,0.2381
964.0,0.2173
965.0,0.2374
966.0,0.2368
967.0,0.2355
968.0,0.3248
969.0,0.3384
970.0,0.3097
971.0,0.3584
972.0,0.3421
973.0,0.2938
974.0,0.2783
975.0,0.2905
976.0,0.2736
977.0,0.3157
978.0,0.2981
979.0,0.3135
980.0,0.294
981.0,0.3565
982.0,0.3394
983.0,0.325
984.0,0.369
985.0,0.3381
986.0,0.3765
987.0,0.368
988.0,0.3673
989.0,0.376
990.0,0.3651
991.0,0.377
992.0,0.3793
993.0,0.3697
994.0,0.3793
995.0,0.379
996.0,0.3772
997.0,0.3778
998.0,0.376
999.0,0.3746
1000.0,0.3717
1001.0,0.3767
1002.0,0.3652
1003.0,0.3699
1004.0,0.3606
1005.0,0.3478
1006.0,0.3612
1007.0,0.3689
1008.0,0.3667
1009.0,0.3645
1010.0,0.3629
1011.0,0.3671
1012.0,0.3637
1013.0,0.3663
1014.0,0.3637
1015.0,0.3613
1016.0,0.3596
1017.0,0.3605
1018.0,0.3593
1019.0,0.3512
1020.0,0.3573
1021.0,0.3569
1022.0,0.354
1023.0,0.3577
1024.0,0.3526
1025.0,0.3576
1026.0,0.3559
1027.0,0.3551
1028.0,0.3544
1029.0,0.3501
1030.0,0.3527
1031.0,0.3512
1032.0,0.3502
1033.0,0.345
1034.0,0.345
1035.0,0.3461
1036.0,0.3478
1037.0,0.3422
1038.0,0.3437
1039.0,0.3434
1040.0,0.342
1041.0,0.3434
1042.0,0.341
1043.0,0.3399
1044.0,0.341
1045.0,0.3364
1046.0,0.3326
1047.0,0.3356
1048.0,0.3374
1049.0,0.3362
1050.0,0.3346
1051.0,0.3341
1052.0,0.3327
1053.0,0.33
1054.0,0.3306
1055.0,0.3307
1056.0,0.3295
1057.0,0.3284
1058.0,0.3203
1059.0,0.3206
1060.0,0.32
1061.0,0.3196
1062.0,0.3212
1063.0,0.318
1064.0,0.3218
1065.0,0.3193
1066.0,0.3131
1067.0,0.3171
1068.0,0.3101
1069.0,0.3006
1070.0,0.3107
1071.0,0.3159
1072.0,0.3119
1073.0,0.3075
1074.0,0.3159
1075.0,0.2989
1076.0,0.3156
1077.0,0.3092
1078.0,0.3031
1079.0,0.3107
1080.0,0.3045
1081.0,0.2942
1082.0,0.2999
1083.0,0.3011
1084.0,0.2931
1085.0,0.3053
1086.0,0.2768
1087.0,0.287
1088.0,0.3005
1089.0,0.2902
1090.0,0.2831
1091.0,0.2993
1092.0,0.2987
1093.0,0.25
1094.0,0.2729
1095.0,0.2609
1096.0,0.2488
1097.0,0.2919
1098.0,0.2445
1099.0,0.2556
1100.0,0.2362
1101.0,0.2396
1102.0,0.2279
1103.0,0.2251
1104.0,0.2254
1105.0,0.2494
1106.0,0.1853
1107.0,0.2359
1108.0,0.1967
1109.0,0.1977
1110.0,0.2333
1111.0,0.1539
1112.0,0.1964
1113.0,0.1206
1114.0,0.1352
1115.0,0.1118
1116.0,0.08667
1117.0,0.02911
1118.0,0.09517
1119.0,0.04494
1120.0,0.05638
1121.0,0.07618
1122.0,0.03012
1123.0,0.05105
1124.0,0.04305
1125.0,0.05673
1126.0,0.01785
1127.0,0.06417
1128.0,0.03629
1129.0,0.03878
1130.0,0.0248
1131.0,0.1269
1132.0,0.09856
1133.0,0.05964
1134.0,0.01374
1135.0,0.005241
1136.0,0.04876
1137.0,0.1237
1138.0,0.08659
1139.0,0.1347
1140.0,0.1104
1141.0,0.08234
1142.0,0.09583
1143.0,0.1384
1144.0,0.0457
1145.0,0.05758
1146.0,0.06206
1147.0,0.01988
1148.0,0.1196
1149.0,0.09388
1150.0,0.04947
1151.0,0.08589
1152.0,0.1077
1153.0,0.1065
1154.0,0.05559
1155.0,0.1405
1156.0,0.1254
1157.0,0.1425
1158.0,0.141
1159.0,0.1534
1160.0,0.1297
1161.0,0.1627
1162.0,0.1633
1163.0,0.2254
1164.0,0.1916
1165.0,0.1791
1166.0,0.1791
1167.0,0.1959
1168.0,0.1977
1169.0,0.2029
1170.0,0.2219
1171.0,0.2162
1172.0,0.221
1173.0,0.2215
1174.0,0.1549
1175.0,0.217
1176.0,0.2402
1177.0,0.2295
1178.0,0.1699
1179.0,0.2422
1180.0,0.2144
1181.0,0.2213
1182.0,0.1501
1183.0,0.2183
1184.0,0.2038
1185.0,0.1958
1186.0,0.2347
1187.0,0.2228
1188.0,0.1523
1189.0,0.2074
1190.0,0.2295
1191.0,0.2165
1192.0,0.2328
1193.0,0.2226
1194.0,0.2298
1195.0,0.2164
1196.0,0.2078
1197.0,0.2304
1198.0,0.2102
1199.0,0.1767
1200.0,0.2198
1201.0,0.2112
1202.0,0.2105
1203.0,0.2085
1204.0,0.1814
1205.0,0.216
1206.0,0.2397
1207.0,0.2097
1208.0,0.207
1209.0,0.2115
1210.0,0.2207
1211.0,0.2095
1212.0,0.206
1213.0,0.2313
1214.0,0.2113
1215.0,0.2072
1216.0,0.2306
1217.0,0.2242
1218.0,0.2288
1219.0,0.2257
1220.0,0.229
1221.0,0.2315
1222.0,0.2253
1223.0,0.223
1224.0,0.2214
1225.0,0.23
1226.0,0.2318
1227.0,0.2129
1228.0,0.2332
1229.0,0.2318
1230.0,0.2277
1231.0,0.2348
1232.0,0.2334
1233.0,0.2245
1234.0,0.2347
1235.0,0.2331
1236.0,0.2349
1237.0,0.2313
1238.0,0.2341
1239.0,0.2311
1240.0,0.232
1241.0,0.2308
1242.0,0.2304
1243.0,0.2286
1244.0,0.2301
1245.0,0.2311
1246.0,0.2298
1247.0,0.2289
1248.0,0.2286
1249.0,0.2294
1250.0,0.228
1251.0,0.2249
1252.0,0.2251
1253.0,0.223
1254.0,0.2206
1255.0,0.2248
1256.0,0.218
1257.0,0.2167
1258.0,0.2211
1259.0,0.2123
1260.0,0.2135
1261.0,0.2006
1262.0,0.194
1263.0,0.1944
1264.0,0.1782
1265.0,0.1931
1266.0,0.1851
1267.0,0.1889
1268.0,0.1783
1269.0,0.1055
1270.0,0.188
1271.0,0.2
1272.0,0.2008
1273.0,0.1985
1274.0,0.1993
1275.0,0.2024
1276.0,0.2046
1277.0,0.2062
1278.0,0.2105
1279.0,0.2086
1280.0,0.206
1281.0,0.1967
1282.0,0.1899
1283.0,0.2044
1284.0,0.2092
1285.0,0.2107
1286.0,0.2137
1287.0,0.2101
1288.0,0.2101
1289.0,0.2029
1290.0,0.2083
1291.0,0.2113
1292.0,0.1974
1293.0,0.2069
1294.0,0.2054
1295.0,0.2041
1296.0,0.1941
1297.0,0.1831
1298.0,0.1982
1299.0,0.2073
1300.0,0.1735
1301.0,0.1792
1302.0,0.1976
1303.0,0.1715
1304.0,0.1444
1305.0,0.1934
1306.0,0.1933
1307.0,0.1482
1308.0,0.172
1309.0,0.1916
1310.0,0.1452
1311.0,0.1645
1312.0,0.1597
1313.0,0.1563
1314.0,0.1392
1315.0,0.137
1316.0,0.1615
1317.0,0.1528
1318.0,0.1669
1319.0,0.1281
1320.0,0.1246
1321.0,0.146
1322.0,0.147
1323.0,0.1087
1324.0,0.1257
1325.0,0.1591
1326.0,0.1353
1327.0,0.1287
1328.0,0.1103
1329.0,0.08107
1330.0,0.1064
1331.0,0.06212
1332.0,0.06486
1333.0,0.09075
1334.0,0.07799
1335.0,0.1082
1336.0,0.08442
1337.0,0.0741
1338.0,0.08016
1339.0,0.08012
1340.0,0.07853
1341.0,0.07528
1342.0,0.07921
1343.0,0.05092
1344.0,0.03069
1345.0,0.04434
1346.0,0.02037
1347.0,0.02043
1348.0,0.001112
1349.0,0.004195
1350.0,0.004512
1351.0,0.0009355
1352.0,0.0002111
1353.0,9.022e-06
1354.0,3.512e-05
1355.0,1.938e-07
1356.0,4.36e-06
1357.0,6.665e-06
1358.0,2.332e-07
1359.0,2.199e-08
1360.0,9.626e-08
1361.0,5.878e-11
1362.0,1.259e-13
1363.0,1.18e-07
1364.0,4.868e-08
1365.0,3.163e-14
1366.0,5.573e-07
1367.0,2.429e-07
1368.0,1.289e-16
1369.0,1.798e-08
1370.0,7.847e-09
1371.0,3.863e-10
1372.0,1.342e-07
1373.0,3.286e-06
1374.0,1.746e-05
1375.0,3.135e-05
1376.0,3.185e-05
1377.0,1.419e-05
1378.0,0.0001464
1379.0,5.949e-06
1380.0,7.865e-06
1381.0,1.911e-07
1382.0,1.168e-07
1383.0,1.585e-09
1384.0,1.932e-08
1385.0,1.274e-07
1386.0,9.536e-08
1387.0,1.659e-05
1388.0,3.319e-07
1389.0,6.57e-05
1390.0,5.623e-05
1391.0,3.661e-05
1392.0,2.295e-06
1393.0,1.308e-05
1394.0,5.405e-06
1395.0,3.445e-08
1396.0,9.207e-11
1397.0,4.941e-06
1398.0,0.0001617
1399.0,0.0001032
1400.0,3.379e-11
1401.0,1.757e-10
1402.0,0.0003492
1403.0,0.0004226
1404.0,0.0001266
1405.0,1.51e-08
1406.0,0.0003089
1407.0,2.886e-05
1408.0,0.0002558
1409.0,7.687e-05
1410.0,6.666e-05
1411.0,0.0003745
1412.0,0.0005331
1413.0,0.006417
1414.0,5.339e-05
1415.0,2.436e-05
1416.0,0.01173
1417.0,0.003172
1418.0,0.003527
1419.0,0.0005325
1420.0,0.002146
1421.0,0.002342
1422.0,0.01538
1423.0,0.002888
1424.0,0.005523
1425.0,0.007929
1426.0,0.009471
1427.0,0.01847
1428.0,0.001028
1429.0,0.01327
1430.0,0.02404
1431.0,0.02677
1432.0,0.000802
1433.0,0.01654
1434.0,0.008169
1435.0,0.007352
1436.0,0.01543
1437.0,0.01186
1438.0,0.004667
