interpolation:linear
wavelength,value
280.0,4.186e-21
280.5,1.298e-19
281.0,6.823e-19
281.5,4.54e-19
282.0,1.234e-18
282.5,3.203e-18
283.0,1.026e-17
283.5,1.675e-17
284.0,2.684e-16
284.5,7.702e-16
285.0,1.676e-15
285.5,8.306e-15
286.0,3.336e-14
286.5,1.477e-13
287.0,4.186e-13
287.5,1.583e-12
288.0,4.097e-12
288.5,1.393e-11
289.0,4.029e-11
289.5,1.296e-10
290.0,3.742e-10
290.5,7.846e-10
291.0,1.731e-09
291.5,5.458e-09
292.0,1.192e-08
292.5,1.823e-08
293.0,4.364e-08
293.5,1.237e-07
294.0,2.162e-07
294.5,2.807e-07
295.0,5.313e-07
295.5,1.438e-06
296.0,2.88e-06
296.5,4.195e-06
297.0,5.882e-06
297.5,1.67e-05
298.0,2.771e-05
298.5,2.909e-05
299.0,6.698e-05
299.5,0.0001204
300.0,0.0001389
300.5,0.0002122
301.0,0.0004222
301.5,0.0007458
302.0,0.0006792
302.5,0.001333
303.0,0.002405
303.5,0.003037
304.0,0.002858
304.5,0.004278
305.0,0.006504
305.5,0.007458
306.0,0.007222
306.5,0.008997
307.0,0.01335
307.5,0.01773
308.0,0.01873
308.5,0.02211
309.0,0.02172
309.5,0.0248
310.0,0.02489
310.5,0.04029
311.0,0.05053
311.5,0.04877
312.0,0.04865
312.5,0.0591
313.0,0.06405
313.5,0.06227
314.0,0.07769
314.5,0.06868
315.0,0.09021
315.5,0.0756
316.0,0.06585
316.5,0.09433
317.0,0.1171
317.5,0.122
318.0,0.09504
318.5,0.1176
319.0,0.1393
319.5,0.1139
320.0,0.1377
320.5,0.1717
321.0,0.1523
321.5,0.146
322.0,0.1563
322.5,0.136
323.0,0.1351
323.5,0.1656
324.0,0.1932
324.5,0.1964
325.0,0.17
325.5,0.2181
326.0,0.2665
326.5,0.2665
327.0,0.2658
327.5,0.257
328.0,0.2294
328.5,0.2405
329.0,0.2873
329.5,0.3259
330.0,0.329
330.5,0.2639
331.0,0.2691
331.5,0.2731
332.0,0.2945
332.5,0.2911
333.0,0.2904
333.5,0.2633
334.0,0.2699
334.5,0.3109
335.0,0.2919
335.5,0.341
336.0,0.236
336.5,0.2765
337.0,0.2271
337.5,0.2826
338.0,0.2756
338.5,0.3181
339.0,0.3149
339.5,0.303
340.0,0.3562
340.5,0.321
341.0,0.3131
341.5,0.2876
342.0,0.3437
342.5,0.3217
343.0,0.3538
343.5,0.3332
344.0,0.2463
344.5,0.2488
345.0,0.3294
345.5,0.3364
346.0,0.2859
346.5,0.3238
347.0,0.3477
347.5,0.2812
348.0,0.3207
348.5,0.3206
349.0,0.2975
349.5,0.2946
350.0,0.3645
350.5,0.3845
351.0,0.3436
351.5,0.334
352.0,0.3588
352.5,0.28
353.0,0.3528
353.5,0.3774
354.0,0.3918
354.5,0.3974
355.0,0.3962
355.5,0.358
356.0,0.3747
356.5,0.32
357.0,0.2644
357.5,0.3238
358.0,0.2566
358.5,0.2193
359.0,0.3068
359.5,0.3911
360.0,0.4147
360.5,0.3315
361.0,0.3023
361.5,0.3482
362.0,0.3012
362.5,0.417
363.0,0.3746
363.5,0.3452
364.0,0.4223
364.5,0.361
365.0,0.3678
365.5,0.4617
366.0,0.4893
366.5,0.4599
367.0,0.448
367.5,0.465
368.0,0.407
368.5,0.4108
369.0,0.4437
369.5,0.4731
370.0,0.5045
370.5,0.3916
371.0,0.4186
371.5,0.5238
372.0,0.3477
372.5,0.417
373.0,0.4243
373.5,0.2762
374.0,0.4014
374.5,0.3325
375.0,0.3233
375.5,0.4827
376.0,0.4002
376.5,0.4148
377.0,0.4393
377.5,0.5141
378.0,0.5574
378.5,0.5269
379.0,0.4349
379.5,0.3973
380.0,0.4132
380.5,0.5006
381.0,0.5018
381.5,0.3979
382.0,0.3535
382.5,0.3014
383.0,0.2792
383.5,0.2689
384.0,0.2967
384.5,0.4366
385.0,0.433
385.5,0.4034
386.0,0.3456
386.5,0.4541
387.0,0.3774
387.5,0.424
388.0,0.3915
388.5,0.3871
389.0,0.418
389.5,0.5064
390.0,0.5083
390.5,0.4679
391.0,0.5509
391.5,0.562
392.0,0.4735
392.5,0.424
393.0,0.236
393.5,0.1716
394.0,0.3492
394.5,0.4441
395.0,0.542
395.5,0.5507
396.0,0.4776
396.5,0.2793
397.0,0.2096
397.5,0.4264
398.0,0.5972
398.5,0.6174
399.0,0.6688
399.5,0.6667
400.0,0.6924
401.0,0.7021
402.0,0.7411
403.0,0.7043
404.0,0.6937
405.0,0.6938
406.0,0.6828
407.0,0.6721
408.0,0.6985
409.0,0.7479
410.0,0.6537
411.0,0.7083
412.0,0.7611
413.0,0.7424
414.0,0.7517
415.0,0.754
416.0,0.7675
417.0,0.7488
418.0,0.7352
419.0,0.745
420.0,0.7419
421.0,0.7764
422.0,0.7382
423.0,0.7212
424.0,0.763
425.0,0.7618
426.0,0.7423
427.0,0.7286
428.0,0.7099
429.0,0.6727
430.0,0.5888
431.0,0.5837
432.0,0.7539
433.0,0.7582
434.0,0.7041
435.0,0.7355
436.0,0.829
437.0,0.818
438.0,0.7451
439.0,0.7706
440.0,0.7953
441.0,0.8243
442.0,0.8842
443.0,0.8613
444.0,0.8802
445.0,0.8612
446.0,0.8221
447.0,0.889
448.0,0.9028
449.0,0.9067
450.0,0.9322
451.0,0.9669
452.0,0.9317
453.0,0.8764
454.0,0.9151
455.0,0.9209
456.0,0.9428
457.0,0.9586
458.0,0.9259
459.0,0.9212
460.0,0.9237
461.0,0.9451
462.0,0.9525
463.0,0.946
464.0,0.9306
465.0,0.919
466.0,0.928
467.0,0.9111
468.0,0.9218
469.0,0.9267
470.0,0.8972
471.0,0.8961
472.0,0.9442
473.0,0.932
474.0,0.9333
475.0,0.9412
476.0,0.913
477.0,0.9155
478.0,0.9409
479.0,0.9353
480.0,0.9372
481.0,0.9548
482.0,0.9599
483.0,0.9485
484.0,0.9291
485.0,0.8853
486.0,0.774
487.0,0.8113
488.0,0.8901
489.0,0.8928
490.0,0.9394
491.0,0.9233
492.0,0.8719
493.0,0.9005
494.0,0.9095
495.0,0.9173
496.0,0.923
497.0,0.9373
498.0,0.8935
499.0,0.9049
500.0,0.8785
501.0,0.8623
502.0,0.85
503.0,0.8845
504.0,0.8616
505.0,0.8928
506.0,0.9217
507.0,0.877
508.0,0.8499
509.0,0.8738
510.0,0.8693
511.0,0.8927
512.0,0.9024
513.0,0.8542
514.0,0.8484
515.0,0.8399
516.0,0.8379
517.0,0.7445
518.0,0.7827
519.0,0.821
520.0,0.8509
521.0,0.8589
522.0,0.8596
523.0,0.8441
524.0,0.8743
525.0,0.8845
526.0,0.8449
527.0,0.7961
528.0,0.8419
529.0,0.8873
530.0,0.8745
531.0,0.8875
532.0,0.857
533.0,0.8319
534.0,0.8565
535.0,0.8752
536.0,0.8833
537.0,0.8485
538.0,0.8636
539.0,0.8563
540.0,0.821
541.0,0.8263
542.0,0.8521
543.0,0.8432
544.0,0.8577
545.0,0.8551
546.0,0.8587
547.0,0.8585
548.0,0.8482
549.0,0.8509
550.0,0.861
551.0,0.8505
552.0,0.8565
553.0,0.8411
554.0,0.8612
555.0,0.8629
556.0,0.8517
557.0,0.8252
558.0,0.8189
559.0,0.8035
560.0,0.8135
561.0,0.824
562.0,0.8179
563.0,0.8402
564.0,0.8172
565.0,0.8101
566.0,0.7981
567.0,0.8131
568.0,0.8056
569.0,0.7859
570.0,0.7858
571.0,0.7812
572.0,0.7996
573.0,0.8081
574.0,0.8055
575.0,0.7903
576.0,0.7831
577.0,0.7917
578.0,0.7799
579.0,0.7833
580.0,0.7985
581.0,0.8029
582.0,0.8184
583.0,0.8206
584.0,0.8279
585.0,0.8077
586.0,0.7911
587.0,0.8083
588.0,0.788
589.0,0.6968
590.0,0.7289
591.0,0.772
592.0,0.7618
593.0,0.7737
594.0,0.7681
595.0,0.7487
596.0,0.7792
597.0,0.7705
598.0,0.7689
599.0,0.7697
600.0,0.7711
601.0,0.765
602.0,0.7598
603.0,0.7725
604.0,0.7853
605.0,0.7813
606.0,0.7782
607.0,0.7861
608.0,0.7775
609.0,0.779
610.0,0.7735
611.0,0.7776
612.0,0.7754
613.0,0.7657
614.0,0.7553
615.0,0.7719
616.0,0.7465
617.0,0.7451
618.0,0.7738
619.0,0.766
620.0,0.7708
621.0,0.7715
622.0,0.7624
623.0,0.7507
624.0,0.7379
625.0,0.7362
626.0,0.7471
627.0,0.7552
628.0,0.7023
629.0,0.7363
630.0,0.7193
631.0,0.7365
632.0,0.7279
633.0,0.7504
634.0,0.7435
635.0,0.7552
636.0,0.7454
637.0,0.7578
638.0,0.7653
639.0,0.7568
640.0,0.7496
641.0,0.7492
642.0,0.746
643.0,0.756
644.0,0.7537
645.0,0.7548
646.0,0.7369
647.0,0.7273
648.0,0.7279
649.0,0.7138
650.0,0.7183
651.0,0.7496
652.0,0.7173
653.0,0.7397
654.0,0.7316
655.0,0.7038
656.0,0.6241
657.0,0.641
658.0,0.7187
659.0,0.724
660.0,0.7271
661.0,0.7322
662.0,0.7335
663.0,0.7191
664.0,0.7279
665.0,0.7287
666.0,0.7293
667.0,0.7288
668.0,0.7292
669.0,0.7406
670.0,0.7374
671.0,0.7373
672.0,0.7311
673.0,0.7421
674.0,0.7394
675.0,0.7327
676.0,0.7378
677.0,0.7305
678.0,0.7326
679.0,0.7208
680.0,0.7266
681.0,0.7218
682.0,0.7209
683.0,0.7195
684.0,0.716
685.0,0.7221
686.0,0.7178
687.0,0.4635
688.0,0.5493
689.0,0.5515
690.0,0.5806
691.0,0.6134
692.0,0.6377
693.0,0.6323
694.0,0.6271
695.0,0.6546
696.0,0.6556
697.0,0.6977
698.0,0.6868
699.0,0.6691
700.0,0.6609
701.0,0.6538
702.0,0.6588
703.0,0.6601
704.0,0.682
705.0,0.683
706.0,0.6827
707.0,0.6834
708.0,0.6848
709.0,0.6863
710.0,0.686
711.0,0.6852
712.0,0.6834
713.0,0.6763
714.0,0.6789
715.0,0.657
716.0,0.6572
717.0,0.5653
718.0,0.5185
719.0,0.4745
720.0,0.4966
721.0,0.5511
722.0,0.6336
723.0,0.5883
724.0,0.5282
725.0,0.519
726.0,0.5436
727.0,0.5525
728.0,0.5175
729.0,0.5386
730.0,0.5698
731.0,0.5447
732.0,0.5844
733.0,0.6204
734.0,0.6356
735.0,0.6222
736.0,0.6214
737.0,0.6238
738.0,0.6346
739.0,0.6221
740.0,0.6387
741.0,0.6325
742.0,0.6334
743.0,0.6495
744.0,0.6478
745.0,0.6481
746.0,0.651
747.0,0.6525
748.0,0.6511
749.0,0.6437
750.0,0.6433
751.0,0.6368
752.0,0.6396
753.0,0.6428
754.0,0.6443
755.0,0.6406
756.0,0.6404
757.0,0.6413
758.0,0.6333
759.0,0.6197
760.0,0.09055
761.0,0.04527
762.0,0.3022
763.0,0.1429
764.0,0.2219
765.0,0.3022
766.0,0.378
767.0,0.4842
768.0,0.5648
769.0,0.578
770.0,0.5992
771.0,0.6048
772.0,0.6062
773.0,0.6105
774.0,0.6076
775.0,0.603
776.0,0.6104
777.0,0.6024
778.0,0.5987
779.0,0.5992
780.0,0.5959
781.0,0.5965
782.0,0.6002
783.0,0.5898
784.0,0.5927
785.0,0.5882
786.0,0.5946
787.0,0.5837
788.0,0.5761
789.0,0.5758
790.0,0.5596
791.0,0.5653
792.0,0.5613
793.0,0.5521
794.0,0.5624
795.0,0.5717
796.0,0.553
797.0,0.5536
798.0,0.5709
799.0,0.567
800.0,0.5569
801.0,0.5549
802.0,0.5533
803.0,0.5489
804.0,0.5498
805.0,0.5484
806.0,0.5644
807.0,0.5575
808.0,0.558
809.0,0.5471
810.0,0.5423
811.0,0.5424
812.0,0.5261
813.0,0.5147
814.0,0.4502
815.0,0.4475
816.0,0.4162
817.0,0.4241
818.0,0.4076
819.0,0.458
820.0,0.4305
821.0,0.5064
822.0,0.4914
823.0,0.3291
824.0,0.4759
825.0,0.4975
826.0,0.4776
827.0,0.5051
828.0,0.4252
829.0,0.4749
830.0,0.4684
831.0,0.4701
832.0,0.4551
833.0,0.4858
834.0,0.4675
835.0,0.5159
836.0,0.4924
837.0,0.5174
838.0,0.5006
839.0,0.5098
840.0,0.5211
841.0,0.5134
842.0,0.515
843.0,0.5152
844.0,0.5078
845.0,0.5253
846.0,0.5231
847.0,0.5135
848.0,0.5101
849.0,0.4956
850.0,0.4748
851.0,0.5025
852.0,0.4991
853.0,0.4806
854.0,0.4148
855.0,0.456
856.0,0.4982
857.0,0.5094
858.0,0.5056
859.0,0.5062
860.0,0.5071
861.0,0.5043
862.0,0.5123
863.0,0.5244
864.0,0.4982
865.0,0.4939
866.0,0.4441
867.0,0.4634
868.0,0.5043
869.0,0.4939
870.0,0.5079
871.0,0.501
872.0,0.4993
873.0,0.4983
874.0,0.4923
875.0,0.4824
876.0,0.4874
877.0,0.4923
878.0,0.4976
879.0,0.49
880.0,0.4795
881.0,0.4721
882.0,0.4823
883.0,0.484
884.0,0.4817
885.0,0.4853
886.0,0.4621
887.0,0.4673
888.0,0.474
889.0,0.4798
890.0,0.4753
891.0,0.4747
892.0,0.4604
893.0,0.4452
894.0,0.428
895.0,0.4026
896.0,0.3785
897.0,0.3227
898.0,0.3535
899.0,0.266
900.0,0.3635
901.0,0.2788
902.0,0.3311
903.0,0.3331
904.0,0.4248
905.0,0.4094
906.0,0.3825
907.0,0.307
908.0,0.3137
909.0,0.3415
910.0,0.2988
911.0,0.3206
912.0,0.3357
913.0,0.3031
914.0,0.3012
915.0,0.3265
916.0,0.2756
917.0,0.3532
918.0,0.2824
919.0,0.3605
920.0,0.3661
921.0,0.381
922.0,0.3383
923.0,0.3682
924.0,0.3463
925.0,0.3388
926.0,0.3424
927.0,0.3856
928.0,0.2761
929.0,0.2502
930.0,0.1936
931.0,0.1838
932.0,0.1292
933.0,0.1034
934.0,0.05333
935.0,0.1071
936.0,0.06473
937.0,0.06539
938.0,0.08125
939.0,0.178
940.0,0.2164
941.0,0.1603
942.0,0.1875
943.0,0.1209
944.0,0.1296
945.0,0.1659
946.0,0.08118
947.0,0.1658
948.0,0.1214
949.0,0.2251
950.0,0.05769
951.0,0.2223
952.0,0.1151
953.0,0.1515
954.0,0.189
955.0,0.1536
956.0,0.1512
957.0,0.1149
958.0,0.2185
959.0,0.1699
960.0,0.1905
961.0,0.2167
962.0,0.2047
963.0,0.2385
964.0,0.2177
965.0,0.2378
966.0,0.2372
967.0,0.236
968.0,0.3253
969.0,0.3389
970.0,0.3101
971.0,0.3589
972.0,0.3426
973.0,0.2943
974.0,0.2788
975.0,0.2909
976.0,0.2741
977.0,0.3162
978.0,0.2986
979.0,0.314
980.0,0.2944
981.0,0.357
982.0,0.3399
983.0,0.3255
984.0,0.3695
985.0,0.3386
986.0,0.377
987.0,0.3684
988.0,0.3678
989.0,0.3765
990.0,0.3656
991.0,0.3775
992.0,0.3798
993.0,0.3702
994.0,0.3798
995.0,0.3795
996.0,0.3776
997.0,0.3783
998.0,0.3764
999.0,0.3751
1000.0,0.3722
1001.0,0.3772
1002.0,0.3656
1003.0,0.3704
1004.0,0.3611
1005.0,0.3482
1006.0,0.3616
1007.0,0.3694
1008.0,0.3672
1009.0,0.365
1010.0,0.3633
1011.0,0.3676
1012.0,0.3642
1013.0,0.3667
1014.0,0.3642
1015.0,0.3617
1016.0,0.3601
1017.0,0.3609
1018.0,0.3597
1019.0,0.3516
1020.0,0.3578
1021.0,0.3574
1022.0,0.3544
1023.0,0.3581
1024.0,0.353
1025.0,0.358
1026.0,0.3564
1027.0,0.3556
1028.0,0.3548
1029.0,0.3506
1030.0,0.3531
1031.0,0.3517
1032.0,0.3507
1033.0,0.3454
1034.0,0.3454
1035.0,0.3465
1036.0,0.3483
1037.0,0.3426
1038.0,0.3441
1039.0,0.3439
1040.0,0.3425
1041.0,0.3438
1042.0,0.3414
1043.0,0.3403
1044.0,0.3415
1045.0,0.3368
1046.0,0.3331
1047.0,0.336
1048.0,0.3378
1049.0,0.3366
1050.0,0.335
1051.0,0.3345
1052.0,0.3331
1053.0,0.3304
1054.0,0.331
1055.0,0.3312
1056.0,0.3299
1057.0,0.3288
1058.0,0.3207
1059.0,0.321
1060.0,0.3204
1061.0,0.32
1062.0,0.3216
1063.0,0.3184
1064.0,0.3222
1065.0,0.3197
1066.0,0.3135
1067.0,0.3175
1068.0,0.3105
1069.0,0.301
1070.0,0.3111
1071.0,0.3163
1072.0,0.3123
1073.0,0.3079
1074.0,0.3163
1075.0,0.2993
1076.0,0.316
1077.0,0.3097
1078.0,0.3035
1079.0,0.3111
1080.0,0.3049
1081.0,0.2946
1082.0,0.3003
1083.0,0.3015
1084.0,0.2935
1085.0,0.3057
1086.0,0.2772
1087.0,0.2874
1088.0,0.3009
1089.0,0.2906
1090.0,0.2835
1091.0,0.2997
1092.0,0.2991
1093.0,0.2504
1094.0,0.2733
1095.0,0.2612
1096.0,0.2492
1097.0,0.2922
1098.0,0.2449
1099.0,0.256
1100.0,0.2365
1101.0,0.24
1102.0,0.2283
1103.0,0.2254
1104.0,0.2258
1105.0,0.2498
1106.0,0.1857
1107.0,0.2362
1108.0,0.197
1109.0,0.198
1110.0,0.2337
1111.0,0.1542
1112.0,0.1967
1113.0,0.1208
1114.0,0.1354
1115.0,0.1121
1116.0,0.08687
1117.0,0.0292
1118.0,0.09537
1119.0,0.04506
1120.0,0.05653
1121.0,0.07638
1122.0,0.03021
1123.0,0.05118
1124.0,0.04317
1125.0,0.05688
1126.0,0.01791
1127.0,0.06434
1128.0,0.0364
1129.0,0.0389
1130.0,0.02488
1131.0,0.1272
1132.0,0.09879
1133.0,0.05981
1134.0,0.01379
1135.0,0.00526
1136.0,0.04891
1137.0,0.124
1138.0,0.08679
1139.0,0.135
1140.0,0.1107
1141.0,0.08253
1142.0,0.09604
1143.0,0.1387
1144.0,0.04582
1145.0,0.05773
1146.0,0.06223
1147.0,0.01995
1148.0,0.1199
1149.0,0.09409
1150.0,0.0496
1151.0,0.08609
1152.0,0.1079
1153.0,0.1067
1154.0,0.05574
1155.0,0.1407
1156.0,0.1256
1157.0,0.1428
1158.0,0.1412
1159.0,0.1537
1160.0,0.1299
1161.0,0.163
1162.0,0.1636
1163.0,0.2257
1164.0,0.1919
1165.0,0.1794
1166.0,0.1794
1167.0,0.1962
1168.0,0.198
1169.0,0.2032
1170.0,0.2222
1171.0,0.2165
1172.0,0.2213
1173.0,0.2218
1174.0,0.1551
1175.0,0.2173
1176.0,0.2405
1177.0,0.2298
1178.0,0.1702
1179.0,0.2425
1180.0,0.2147
1181.0,0.2216
1182.0,0.1504
1183.0,0.2187
1184.0,0.2041
1185.0,0.1961
1186.0,0.2351
1187.0,0.2231
1188.0,0.1526
1189.0,0.2077
1190.0,0.2298
1191.0,0.2168
1192.0,0.2332
1193.0,0.223
1194.0,0.2301
1195.0,0.2167
1196.0,0.2081
1197.0,0.2307
1198.0,0.2105
1199.0,0.177
1200.0,0.2201
1201.0,0.2116
1202.0,0.2108
1203.0,0.2088
1204.0,0.1817
1205.0,0.2163
1206.0,0.24
1207.0,0.21
1208.0,0.2073
1209.0,0.2117
1210.0,0.221
1211.0,0.2098
1212.0,0.2063
1213.0,0.2316
1214.0,0.2117
1215.0,0.2075
1216.0,0.231
1217.0,0.2245
1218.0,0.2291
1219.0,0.226
1220.0,0.2293
1221.0,0.2318
1222.0,0.2256
1223.0,0.2234
1224.0,0.2217
1225.0,0.2303
1226.0,0.2321
1227.0,0.2132
1228.0,0.2335
1229.0,0.2321
1230.0,0.228
1231.0,0.2351
1232.0,0.2337
1233.0,0.2248
1234.0,0.235
1235.0,0.2334
1236.0,0.2352
1237.0,0.2316
1238.0,0.2344
1239.0,0.2314
1240.0,0.2323
1241.0,0.2311
1242.0,0.2307
1243.0,0.2289
1244.0,0.2304
1245.0,0.2314
1246.0,0.2301
1247.0,0.2292
1248.0,0.2289
1249.0,0.2297
1250.0,0.2283
1251.0,0.2252
1252.0,0.2254
1253.0,0.2233
1254.0,0.2209
1255.0,0.2251
1256.0,0.2183
1257.0,0.217
1258.0,0.2214
1259.0,0.2126
1260.0,0.2138
1261.0,0.2009
1262.0,0.1943
1263.0,0.1946
1264.0,0.1785
1265.0,0.1934
1266.0,0.1854
1267.0,0.1892
1268.0,0.1786
1269.0,0.1057
1270.0,0.1883
1271.0,0.2003
1272.0,0.2011
1273.0,0.1988
1274.0,0.1996
1275.0,0.2027
1276.0,0.2048
1277.0,0.2064
1278.0,0.2108
1279.0,0.2089
1280.0,0.2063
1281.0,0.197
1282.0,0.1901
1283.0,0.2047
1284.0,0.2095
1285.0,0.211
1286.0,0.214
1287.0,0.2104
1288.0,0.2104
1289.0,0.2031
1290.0,0.2086
1291.0,0.2116
1292.0,0.1977
1293.0,0.2072
1294.0,0.2057
1295.0,0.2044
1296.0,0.1944
1297.0,0.1833
1298.0,0.1985
1299.0,0.2076
1300.0,0.1738
1301.0,0.1795
1302.0,0.1979
1303.0,0.1717
1304.0,0.1446
1305.0,0.1937
1306.0,0.1936
1307.0,0.1484
1308.0,0.1723
1309.0,0.1919
1310.0,0.1454
1311.0,0.1648
1312.0,0.16
1313.0,0.1565
1314.0,0.1394
1315.0,0.1372
1316.0,0.1618
1317.0,0.153
1318.0,0.1671
1319.0,0.1283
1320.0,0.1248
1321.0,0.1462
1322.0,0.1472
1323.0,0.1089
1324.0,0.1259
1325.0,0.1593
1326.0,0.1355
1327.0,0.1289
1328.0,0.1105
1329.0,0.08123
1330.0,0.1066
1331.0,0.06226
1332.0,0.065
1333.0,0.09094
1334.0,0.07814
1335.0,0.1084
1336.0,0.08458
1337.0,0.07425
1338.0,0.08033
1339.0,0.08029
1340.0,0.07868
1341.0,0.07545
1342.0,0.07938
1343.0,0.05106
1344.0,0.03077
1345.0,0.04446
1346.0,0.02044
1347.0,0.0205
1348.0,0.001118
1349.0,0.004217
1350.0,0.004534
1351.0,0.0009418
1352.0,0.000213
1353.0,9.121e-06
1354.0,3.545e-05
1355.0,1.966e-07
1356.0,4.408e-06
1357.0,6.739e-06
1358.0,2.364e-07
1359.0,2.238e-08
1360.0,9.772e-08
1361.0,6.009e-11
1362.0,1.291e-13
1363.0,1.2e-07
1364.0,4.948e-08
1365.0,3.256e-14
1366.0,5.659e-07
1367.0,2.465e-07
1368.0,1.336e-16
1369.0,1.828e-08
1370.0,7.989e-09
1371.0,3.939e-10
1372.0,1.361e-07
1373.0,3.326e-06
1374.0,1.765e-05
1375.0,3.169e-05
1376.0,3.215e-05
1377.0,1.432e-05
1378.0,0.0001477
1379.0,6.007e-06
1380.0,7.95e-06
1381.0,1.933e-07
1382.0,1.186e-07
1383.0,1.61e-09
1384.0,1.965e-08
1385.0,1.291e-07
1386.0,9.691e-08
1387.0,1.678e-05
1388.0,3.358e-07
1389.0,6.636e-05
1390.0,5.68e-05
1391.0,3.699e-05
1392.0,2.319e-06
1393.0,1.321e-05
1394.0,5.473e-06
1395.0,3.494e-08
1396.0,9.404e-11
1397.0,4.993e-06
1398.0,0.0001632
1399.0,0.0001042
1400.0,3.459e-11
1401.0,1.793e-10
1402.0,0.0003516
1403.0,0.0004258
1404.0,0.0001276
1405.0,1.533e-08
1406.0,0.0003115
1407.0,2.908e-05
1408.0,0.0002579
1409.0,7.76e-05
1410.0,6.723e-05
1411.0,0.0003773
1412.0,0.0005366
1413.0,0.006449
1414.0,5.384e-05
1415.0,2.458e-05
1416.0,0.01177
1417.0,0.003188
1418.0,0.003545
1419.0,0.0005354
1420.0,0.002157
1421.0,0.002354
1422.0,0.01544
1423.0,0.0029
1424.0,0.005545
1425.0,0.007962
1426.0,0.009506
1427.0,0.01853
1428.0,0.001034
1429.0,0.01332
1430.0,0.02411
1431.0,0.02685
1432.0,0.0008068
1433.0,0.01659
1434.0,0.008196
1435.0,0.007383
1436.0,0.01549
1437.0,0.0119
1438.0,0.004686
1439.0,0.0216
