interpolation:linear
wavelength,value
280.0,2.103e-21
280.5,6.654e-20
281.0,3.521e-19
281.5,4.057e-19
282.0,1.025e-18
282.5,2.645e-18
283.0,8.48e-18
283.5,1.384e-17
284.0,2.249e-16
284.5,6.496e-16
285.0,1.423e-15
285.5,6.838e-15
286.0,2.729e-14
286.5,1.202e-13
287.0,3.4e-13
287.5,1.287e-12
288.0,3.578e-12
288.5,1.164e-11
289.0,3.255e-11
289.5,1.018e-10
290.0,2.885e-10
290.5,5.964e-10
291.0,1.297e-09
291.5,3.764e-09
292.0,7.781e-09
292.5,1.157e-08
293.0,2.665e-08
293.5,7.133e-08
294.0,1.192e-07
294.5,1.546e-07
295.0,2.79e-07
295.5,6.889e-07
296.0,1.378e-06
296.5,2.009e-06
297.0,2.823e-06
297.5,8.07e-06
298.0,1.352e-05
298.5,1.432e-05
299.0,3.331e-05
299.5,6.126e-05
300.0,7.179e-05
300.5,0.0001116
301.0,0.0002294
301.5,0.0004206
302.0,0.0003922
302.5,0.0007791
303.0,0.00143
303.5,0.001828
304.0,0.001736
304.5,0.002662
305.0,0.004186
305.5,0.004903
306.0,0.004787
306.5,0.006046
307.0,0.009243
307.5,0.01264
308.0,0.01341
308.5,0.01606
309.0,0.0159
309.5,0.01848
310.0,0.0187
310.5,0.03041
311.0,0.0384
311.5,0.03717
312.0,0.03764
312.5,0.04618
313.0,0.05031
313.5,0.04868
314.0,0.06146
314.5,0.05519
315.0,0.07271
315.5,0.06048
316.0,0.05336
316.5,0.07728
317.0,0.09595
317.5,0.09964
318.0,0.07819
318.5,0.09814
319.0,0.1171
319.5,0.09467
320.0,0.1143
320.5,0.1446
321.0,0.1299
321.5,0.1247
322.0,0.1317
322.5,0.1146
323.0,0.1149
323.5,0.142
324.0,0.166
324.5,0.1681
325.0,0.1449
325.5,0.1873
326.0,0.2293
326.5,0.2304
327.0,0.2294
327.5,0.2213
328.0,0.1964
328.5,0.2074
329.0,0.2493
329.5,0.2833
330.0,0.2856
330.5,0.228
331.0,0.2322
331.5,0.2365
332.0,0.2563
332.5,0.2539
333.0,0.2531
333.5,0.2286
334.0,0.2342
334.5,0.271
335.0,0.255
335.5,0.298
336.0,0.2062
336.5,0.2414
337.0,0.1979
337.5,0.2461
338.0,0.2408
338.5,0.2781
339.0,0.2754
339.5,0.265
340.0,0.3114
340.5,0.2809
341.0,0.274
341.5,0.2517
342.0,0.3009
342.5,0.2816
343.0,0.3098
343.5,0.2917
344.0,0.2157
344.5,0.2179
345.0,0.2885
345.5,0.2947
346.0,0.2506
346.5,0.2838
347.0,0.3048
347.5,0.2465
348.0,0.2811
348.5,0.2811
349.0,0.2609
349.5,0.2584
350.0,0.3198
350.5,0.3374
351.0,0.3014
351.5,0.293
352.0,0.3148
352.5,0.2458
353.0,0.3098
353.5,0.3314
354.0,0.3441
354.5,0.349
355.0,0.348
355.5,0.3145
356.0,0.3292
356.5,0.2811
357.0,0.2323
357.5,0.2845
358.0,0.2255
358.5,0.1928
359.0,0.2697
359.5,0.3437
360.0,0.3645
360.5,0.2914
361.0,0.2658
361.5,0.3062
362.0,0.265
362.5,0.3669
363.0,0.3297
363.5,0.3038
364.0,0.3717
364.5,0.3178
365.0,0.3238
365.5,0.4065
366.0,0.4309
366.5,0.4051
367.0,0.3946
367.5,0.4096
368.0,0.3586
368.5,0.362
369.0,0.3911
369.5,0.417
370.0,0.4447
370.5,0.3453
371.0,0.3691
371.5,0.4619
372.0,0.3066
372.5,0.3678
373.0,0.3743
373.5,0.2436
374.0,0.3541
374.5,0.2934
375.0,0.2853
375.5,0.426
376.0,0.3533
376.5,0.3662
377.0,0.3878
377.5,0.4539
378.0,0.4922
378.5,0.4653
379.0,0.3841
379.5,0.3509
380.0,0.3649
380.5,0.4422
381.0,0.4433
381.5,0.3516
382.0,0.3124
382.5,0.2664
383.0,0.2468
383.5,0.2378
384.0,0.2624
384.5,0.386
385.0,0.3829
385.5,0.3568
386.0,0.3057
386.5,0.4017
387.0,0.3339
387.5,0.3751
388.0,0.3465
388.5,0.3426
389.0,0.3699
389.5,0.4482
390.0,0.45
390.5,0.4143
391.0,0.4878
391.5,0.4977
392.0,0.4193
392.5,0.3755
393.0,0.209
393.5,0.152
394.0,0.3094
394.5,0.3935
395.0,0.4803
395.5,0.488
396.0,0.4233
396.5,0.2475
397.0,0.1858
397.5,0.378
398.0,0.5295
398.5,0.5474
399.0,0.5931
399.5,0.5913
400.0,0.6141
401.0,0.6222
402.0,0.6569
403.0,0.6244
404.0,0.6151
405.0,0.6153
406.0,0.6057
407.0,0.5963
408.0,0.6198
409.0,0.6637
410.0,0.5803
411.0,0.6289
412.0,0.6759
413.0,0.6593
414.0,0.6678
415.0,0.6699
416.0,0.682
417.0,0.6655
418.0,0.6535
419.0,0.6624
420.0,0.6597
421.0,0.6905
422.0,0.6566
423.0,0.6416
424.0,0.6788
425.0,0.6779
426.0,0.6607
427.0,0.6486
428.0,0.632
429.0,0.599
430.0,0.5245
431.0,0.5199
432.0,0.6716
433.0,0.6756
434.0,0.6274
435.0,0.6554
436.0,0.7389
437.0,0.7293
438.0,0.6644
439.0,0.687
440.0,0.7092
441.0,0.7352
442.0,0.7887
443.0,0.7682
444.0,0.7852
445.0,0.7683
446.0,0.7336
447.0,0.7935
448.0,0.8058
449.0,0.8095
450.0,0.8324
451.0,0.8635
452.0,0.8321
453.0,0.7829
454.0,0.8176
455.0,0.8227
456.0,0.8425
457.0,0.8566
458.0,0.8273
459.0,0.8232
460.0,0.8254
461.0,0.8445
462.0,0.8513
463.0,0.8455
464.0,0.8319
465.0,0.8218
466.0,0.8301
467.0,0.8148
468.0,0.8245
469.0,0.8289
470.0,0.8024
471.0,0.8015
472.0,0.8446
473.0,0.8337
474.0,0.8347
475.0,0.8416
476.0,0.8162
477.0,0.8183
478.0,0.8411
479.0,0.8362
480.0,0.838
481.0,0.854
482.0,0.8588
483.0,0.8488
484.0,0.8316
485.0,0.7925
486.0,0.693
487.0,0.7265
488.0,0.797
489.0,0.7994
490.0,0.8412
491.0,0.8269
492.0,0.7809
493.0,0.8066
494.0,0.8147
495.0,0.8217
496.0,0.8268
497.0,0.8396
498.0,0.8003
499.0,0.8105
500.0,0.7867
501.0,0.7721
502.0,0.7609
503.0,0.7915
504.0,0.7702
505.0,0.7988
506.0,0.8245
507.0,0.7847
508.0,0.7606
509.0,0.7822
510.0,0.7783
511.0,0.7994
512.0,0.8083
513.0,0.7651
514.0,0.7599
515.0,0.7524
516.0,0.7505
517.0,0.6669
518.0,0.7012
519.0,0.7354
520.0,0.7621
521.0,0.7693
522.0,0.7699
523.0,0.756
524.0,0.7829
525.0,0.7918
526.0,0.7563
527.0,0.7124
528.0,0.7533
529.0,0.7938
530.0,0.7823
531.0,0.7938
532.0,0.7665
533.0,0.7441
534.0,0.7662
535.0,0.783
536.0,0.7904
537.0,0.7593
538.0,0.7728
539.0,0.7663
540.0,0.7346
541.0,0.7391
542.0,0.7621
543.0,0.7544
544.0,0.7672
545.0,0.7649
546.0,0.768
547.0,0.7679
548.0,0.7588
549.0,0.7612
550.0,0.7703
551.0,0.761
552.0,0.7663
553.0,0.7525
554.0,0.7705
555.0,0.7719
556.0,0.7619
557.0,0.7381
558.0,0.7323
559.0,0.7185
560.0,0.7273
561.0,0.7366
562.0,0.731
563.0,0.7507
564.0,0.7301
565.0,0.7236
566.0,0.7128
567.0,0.7261
568.0,0.719
569.0,0.7006
570.0,0.7006
571.0,0.6967
572.0,0.7126
573.0,0.7201
574.0,0.7176
575.0,0.7039
576.0,0.6975
577.0,0.7053
578.0,0.695
579.0,0.6983
580.0,0.7125
581.0,0.7169
582.0,0.731
583.0,0.7333
584.0,0.74
585.0,0.7221
586.0,0.7073
587.0,0.7224
588.0,0.7033
589.0,0.6201
590.0,0.6487
591.0,0.6883
592.0,0.6785
593.0,0.6899
594.0,0.6846
595.0,0.6666
596.0,0.6953
597.0,0.6872
598.0,0.6862
599.0,0.6871
600.0,0.6888
601.0,0.6836
602.0,0.679
603.0,0.6905
604.0,0.7021
605.0,0.6986
606.0,0.696
607.0,0.7032
608.0,0.6956
609.0,0.6971
610.0,0.6924
611.0,0.6961
612.0,0.6942
613.0,0.6856
614.0,0.6765
615.0,0.6915
616.0,0.6689
617.0,0.6676
618.0,0.6935
619.0,0.6865
620.0,0.6908
621.0,0.6913
622.0,0.683
623.0,0.6724
624.0,0.6611
625.0,0.6596
626.0,0.6693
627.0,0.6762
628.0,0.6247
629.0,0.6579
630.0,0.6425
631.0,0.6593
632.0,0.6518
633.0,0.6726
634.0,0.6669
635.0,0.6776
636.0,0.6691
637.0,0.6804
638.0,0.6874
639.0,0.68
640.0,0.6737
641.0,0.6735
642.0,0.6708
643.0,0.6798
644.0,0.6779
645.0,0.6788
646.0,0.6622
647.0,0.6524
648.0,0.653
649.0,0.6402
650.0,0.6457
651.0,0.6741
652.0,0.6435
653.0,0.6653
654.0,0.6581
655.0,0.6323
656.0,0.5613
657.0,0.5765
658.0,0.6469
659.0,0.6518
660.0,0.6547
661.0,0.6594
662.0,0.6603
663.0,0.6474
664.0,0.6557
665.0,0.6568
666.0,0.6575
667.0,0.6572
668.0,0.6578
669.0,0.6681
670.0,0.6653
671.0,0.6653
672.0,0.6597
673.0,0.6698
674.0,0.6674
675.0,0.6614
676.0,0.666
677.0,0.6595
678.0,0.6615
679.0,0.6509
680.0,0.6561
681.0,0.6519
682.0,0.651
683.0,0.6498
684.0,0.6466
685.0,0.6522
686.0,0.6482
687.0,0.401
688.0,0.4835
689.0,0.4857
690.0,0.5142
691.0,0.5466
692.0,0.5708
693.0,0.5658
694.0,0.5613
695.0,0.5881
696.0,0.5891
697.0,0.6296
698.0,0.6197
699.0,0.6019
700.0,0.5945
701.0,0.5875
702.0,0.5927
703.0,0.5939
704.0,0.6147
705.0,0.6156
706.0,0.6157
707.0,0.6165
708.0,0.6177
709.0,0.6197
710.0,0.6191
711.0,0.6187
712.0,0.6174
713.0,0.6107
714.0,0.6131
715.0,0.5926
716.0,0.5926
717.0,0.5032
718.0,0.4608
719.0,0.4212
720.0,0.4402
721.0,0.4924
722.0,0.5702
723.0,0.5273
724.0,0.4709
725.0,0.4619
726.0,0.4841
727.0,0.4937
728.0,0.4603
729.0,0.4813
730.0,0.509
731.0,0.486
732.0,0.5238
733.0,0.5583
734.0,0.5727
735.0,0.5603
736.0,0.5595
737.0,0.5617
738.0,0.573
739.0,0.5617
740.0,0.5772
741.0,0.572
742.0,0.573
743.0,0.5877
744.0,0.5864
745.0,0.5868
746.0,0.5894
747.0,0.5908
748.0,0.5896
749.0,0.5829
750.0,0.5825
751.0,0.5767
752.0,0.5792
753.0,0.5821
754.0,0.5835
755.0,0.5801
756.0,0.5799
757.0,0.5807
758.0,0.5735
759.0,0.5602
760.0,0.068
761.0,0.03183
762.0,0.2553
763.0,0.1121
764.0,0.1817
765.0,0.2552
766.0,0.3276
767.0,0.4285
768.0,0.5071
769.0,0.5206
770.0,0.5416
771.0,0.5475
772.0,0.5491
773.0,0.553
774.0,0.5505
775.0,0.5463
776.0,0.553
777.0,0.5457
778.0,0.5424
779.0,0.5429
780.0,0.5399
781.0,0.5405
782.0,0.5439
783.0,0.5344
784.0,0.5371
785.0,0.5329
786.0,0.5387
787.0,0.528
788.0,0.5208
789.0,0.5205
790.0,0.5048
791.0,0.511
792.0,0.5075
793.0,0.4991
794.0,0.5095
795.0,0.5176
796.0,0.4991
797.0,0.4996
798.0,0.5167
799.0,0.5129
800.0,0.5034
801.0,0.5013
802.0,0.4998
803.0,0.4957
804.0,0.4967
805.0,0.4958
806.0,0.511
807.0,0.5046
808.0,0.5052
809.0,0.4947
810.0,0.49
811.0,0.4893
812.0,0.4736
813.0,0.4628
814.0,0.4017
815.0,0.3995
816.0,0.3711
817.0,0.3785
818.0,0.363
819.0,0.4106
820.0,0.3849
821.0,0.4566
822.0,0.4425
823.0,0.2905
824.0,0.4272
825.0,0.4486
826.0,0.4294
827.0,0.4554
828.0,0.3798
829.0,0.4273
830.0,0.4211
831.0,0.4227
832.0,0.4086
833.0,0.4378
834.0,0.4202
835.0,0.4662
836.0,0.4433
837.0,0.4677
838.0,0.4517
839.0,0.4609
840.0,0.4714
841.0,0.4641
842.0,0.4661
843.0,0.4669
844.0,0.4598
845.0,0.4761
846.0,0.4742
847.0,0.4656
848.0,0.4623
849.0,0.4492
850.0,0.4304
851.0,0.4552
852.0,0.4522
853.0,0.4357
854.0,0.3758
855.0,0.4134
856.0,0.4516
857.0,0.4619
858.0,0.4584
859.0,0.459
860.0,0.46
861.0,0.4574
862.0,0.4647
863.0,0.4757
864.0,0.4519
865.0,0.448
866.0,0.4028
867.0,0.4204
868.0,0.4575
869.0,0.448
870.0,0.4608
871.0,0.4545
872.0,0.4529
873.0,0.452
874.0,0.4467
875.0,0.4376
876.0,0.4421
877.0,0.4466
878.0,0.4514
879.0,0.4445
880.0,0.4349
881.0,0.4282
882.0,0.4373
883.0,0.439
884.0,0.4368
885.0,0.4401
886.0,0.4186
887.0,0.4237
888.0,0.4296
889.0,0.4352
890.0,0.4306
891.0,0.4304
892.0,0.4167
893.0,0.4024
894.0,0.3855
895.0,0.3609
896.0,0.3388
897.0,0.2868
898.0,0.3152
899.0,0.2348
900.0,0.3254
901.0,0.2461
902.0,0.2956
903.0,0.2962
904.0,0.3826
905.0,0.3681
906.0,0.3433
907.0,0.2723
908.0,0.2788
909.0,0.3049
910.0,0.2642
911.0,0.2853
912.0,0.2991
913.0,0.2679
914.0,0.2667
915.0,0.2891
916.0,0.2435
917.0,0.3147
918.0,0.2494
919.0,0.3221
920.0,0.3288
921.0,0.3422
922.0,0.3019
923.0,0.3308
924.0,0.3087
925.0,0.3021
926.0,0.3051
927.0,0.3455
928.0,0.2421
929.0,0.2179
930.0,0.1664
931.0,0.1582
932.0,0.1089
933.0,0.08602
934.0,0.0421
935.0,0.09003
936.0,0.05294
937.0,0.05336
938.0,0.06687
939.0,0.1531
940.0,0.1879
941.0,0.137
942.0,0.1614
943.0,0.1024
944.0,0.1115
945.0,0.1422
946.0,0.06737
947.0,0.1415
948.0,0.1034
949.0,0.1944
950.0,0.04673
951.0,0.1923
952.0,0.09681
953.0,0.1293
954.0,0.1634
955.0,0.1313
956.0,0.131
957.0,0.09644
958.0,0.1919
959.0,0.1468
960.0,0.1646
961.0,0.1891
962.0,0.1785
963.0,0.2097
964.0,0.1909
965.0,0.2091
966.0,0.2083
967.0,0.207
968.0,0.2918
969.0,0.3031
970.0,0.2768
971.0,0.3231
972.0,0.3078
973.0,0.2616
974.0,0.2475
975.0,0.2593
976.0,0.2428
977.0,0.2832
978.0,0.2662
979.0,0.2807
980.0,0.2628
981.0,0.3214
982.0,0.305
983.0,0.2915
984.0,0.3339
985.0,0.3038
986.0,0.3414
987.0,0.3328
988.0,0.3323
989.0,0.3414
990.0,0.3302
991.0,0.3423
992.0,0.3444
993.0,0.3348
994.0,0.3445
995.0,0.3444
996.0,0.3425
997.0,0.3432
998.0,0.3415
999.0,0.3403
1000.0,0.3375
1001.0,0.3422
1002.0,0.3309
1003.0,0.336
1004.0,0.3273
1005.0,0.316
1006.0,0.328
1007.0,0.3351
1008.0,0.333
1009.0,0.3308
1010.0,0.3292
1011.0,0.3335
1012.0,0.3302
1013.0,0.3328
1014.0,0.3304
1015.0,0.3282
1016.0,0.3267
1017.0,0.3274
1018.0,0.3264
1019.0,0.3188
1020.0,0.3246
1021.0,0.3243
1022.0,0.3215
1023.0,0.3249
1024.0,0.3199
1025.0,0.3249
1026.0,0.3233
1027.0,0.3226
1028.0,0.3219
1029.0,0.318
1030.0,0.3204
1031.0,0.319
1032.0,0.3182
1033.0,0.3134
1034.0,0.3134
1035.0,0.3144
1036.0,0.3159
1037.0,0.3108
1038.0,0.3122
1039.0,0.312
1040.0,0.3107
1041.0,0.3119
1042.0,0.3097
1043.0,0.3087
1044.0,0.3097
1045.0,0.3055
1046.0,0.302
1047.0,0.3047
1048.0,0.3063
1049.0,0.3052
1050.0,0.3037
1051.0,0.3032
1052.0,0.3019
1053.0,0.2994
1054.0,0.3
1055.0,0.3
1056.0,0.2988
1057.0,0.2978
1058.0,0.2904
1059.0,0.2906
1060.0,0.2901
1061.0,0.2897
1062.0,0.2911
1063.0,0.2881
1064.0,0.2916
1065.0,0.2892
1066.0,0.2837
1067.0,0.2873
1068.0,0.2808
1069.0,0.2723
1070.0,0.2814
1071.0,0.2864
1072.0,0.2826
1073.0,0.2786
1074.0,0.2865
1075.0,0.2702
1076.0,0.2862
1077.0,0.28
1078.0,0.2742
1079.0,0.2819
1080.0,0.2757
1081.0,0.2659
1082.0,0.2718
1083.0,0.2731
1084.0,0.2648
1085.0,0.2765
1086.0,0.2496
1087.0,0.2595
1088.0,0.2725
1089.0,0.2623
1090.0,0.2554
1091.0,0.2711
1092.0,0.2708
1093.0,0.2244
1094.0,0.2471
1095.0,0.2344
1096.0,0.2229
1097.0,0.2645
1098.0,0.2188
1099.0,0.229
1100.0,0.2107
1101.0,0.2141
1102.0,0.203
1103.0,0.2001
1104.0,0.2004
1105.0,0.2233
1106.0,0.1624
1107.0,0.2105
1108.0,0.1734
1109.0,0.1747
1110.0,0.2078
1111.0,0.1343
1112.0,0.1737
1113.0,0.1038
1114.0,0.1166
1115.0,0.09631
1116.0,0.07303
1117.0,0.02297
1118.0,0.08066
1119.0,0.03674
1120.0,0.04591
1121.0,0.06284
1122.0,0.02371
1123.0,0.04164
1124.0,0.0351
1125.0,0.0466
1126.0,0.01358
1127.0,0.05282
1128.0,0.02864
1129.0,0.03075
1130.0,0.01933
1131.0,0.1077
1132.0,0.08303
1133.0,0.04856
1134.0,0.01038
1135.0,0.004019
1136.0,0.0391
1137.0,0.1043
1138.0,0.07274
1139.0,0.1168
1140.0,0.09438
1141.0,0.0692
1142.0,0.08121
1143.0,0.1188
1144.0,0.03767
1145.0,0.04689
1146.0,0.05052
1147.0,0.01509
1148.0,0.1026
1149.0,0.07949
1150.0,0.04106
1151.0,0.07214
1152.0,0.09168
1153.0,0.09158
1154.0,0.04525
1155.0,0.1217
1156.0,0.1079
1157.0,0.124
1158.0,0.1226
1159.0,0.1342
1160.0,0.1127
1161.0,0.1434
1162.0,0.1437
1163.0,0.2018
1164.0,0.1703
1165.0,0.1579
1166.0,0.1589
1167.0,0.1744
1168.0,0.1757
1169.0,0.1808
1170.0,0.1987
1171.0,0.1936
1172.0,0.1985
1173.0,0.1983
1174.0,0.1362
1175.0,0.1949
1176.0,0.2171
1177.0,0.2065
1178.0,0.1511
1179.0,0.219
1180.0,0.1923
1181.0,0.1986
1182.0,0.1327
1183.0,0.1963
1184.0,0.1825
1185.0,0.1747
1186.0,0.2116
1187.0,0.2001
1188.0,0.1343
1189.0,0.1862
1190.0,0.2069
1191.0,0.1939
1192.0,0.2101
1193.0,0.2005
1194.0,0.2072
1195.0,0.1942
1196.0,0.186
1197.0,0.2081
1198.0,0.1894
1199.0,0.1574
1200.0,0.1978
1201.0,0.1895
1202.0,0.1894
1203.0,0.1873
1204.0,0.1621
1205.0,0.1948
1206.0,0.2171
1207.0,0.1884
1208.0,0.1865
1209.0,0.1906
1210.0,0.1994
1211.0,0.1886
1212.0,0.1845
1213.0,0.2091
1214.0,0.1897
1215.0,0.1858
1216.0,0.2086
1217.0,0.2024
1218.0,0.2068
1219.0,0.2039
1220.0,0.2071
1221.0,0.2095
1222.0,0.2038
1223.0,0.2016
1224.0,0.1997
1225.0,0.2081
1226.0,0.21
1227.0,0.1919
1228.0,0.2115
1229.0,0.21
1230.0,0.2061
1231.0,0.2132
1232.0,0.2119
1233.0,0.203
1234.0,0.2133
1235.0,0.2117
1236.0,0.2134
1237.0,0.2098
1238.0,0.2127
1239.0,0.21
1240.0,0.2109
1241.0,0.2095
1242.0,0.2094
1243.0,0.2077
1244.0,0.2091
1245.0,0.21
1246.0,0.2088
1247.0,0.2079
1248.0,0.2076
1249.0,0.2084
1250.0,0.207
1251.0,0.2041
1252.0,0.2044
1253.0,0.2023
1254.0,0.1998
1255.0,0.2041
1256.0,0.1974
1257.0,0.1961
1258.0,0.2005
1259.0,0.1918
1260.0,0.1929
1261.0,0.1802
1262.0,0.1738
1263.0,0.1741
1264.0,0.1584
1265.0,0.173
1266.0,0.1651
1267.0,0.1689
1268.0,0.1587
1269.0,0.08907
1270.0,0.168
1271.0,0.1798
1272.0,0.1806
1273.0,0.1785
1274.0,0.1794
1275.0,0.1823
1276.0,0.1845
1277.0,0.1862
1278.0,0.1905
1279.0,0.1887
1280.0,0.1864
1281.0,0.1782
1282.0,0.1723
1283.0,0.1855
1284.0,0.1898
1285.0,0.1911
1286.0,0.194
1287.0,0.1904
1288.0,0.1905
1289.0,0.1833
1290.0,0.1889
1291.0,0.1918
1292.0,0.178
1293.0,0.1875
1294.0,0.1861
1295.0,0.1846
1296.0,0.1748
1297.0,0.1643
1298.0,0.1791
1299.0,0.188
1300.0,0.1554
1301.0,0.1609
1302.0,0.1785
1303.0,0.1538
1304.0,0.1278
1305.0,0.1747
1306.0,0.1744
1307.0,0.1318
1308.0,0.1546
1309.0,0.1726
1310.0,0.129
1311.0,0.1475
1312.0,0.1429
1313.0,0.1395
1314.0,0.1236
1315.0,0.1212
1316.0,0.1445
1317.0,0.1365
1318.0,0.1497
1319.0,0.1129
1320.0,0.1103
1321.0,0.1299
1322.0,0.1304
1323.0,0.09472
1324.0,0.1109
1325.0,0.1421
1326.0,0.1198
1327.0,0.1137
1328.0,0.09687
1329.0,0.06972
1330.0,0.0923
1331.0,0.05224
1332.0,0.05507
1333.0,0.07739
1334.0,0.0675
1335.0,0.09422
1336.0,0.07261
1337.0,0.06339
1338.0,0.06851
1339.0,0.06872
1340.0,0.06784
1341.0,0.06392
1342.0,0.06737
1343.0,0.04136
1344.0,0.02511
1345.0,0.03624
1346.0,0.01554
1347.0,0.01538
1348.0,0.0007188
1349.0,0.002821
1350.0,0.00312
1351.0,0.000562
1352.0,0.0001067
1353.0,3.92e-06
1354.0,1.706e-05
1355.0,6.689e-08
1356.0,1.881e-06
1357.0,2.879e-06
1358.0,8.16e-08
1359.0,5.895e-09
1360.0,3.063e-08
1361.0,1.11e-11
1362.0,1.994e-14
1363.0,3.362e-08
1364.0,1.406e-08
1365.0,3.948e-15
1366.0,1.699e-07
1367.0,7.977e-08
1368.0,1.274e-17
1369.0,5.159e-09
1370.0,2.013e-09
1371.0,8.813e-11
1372.0,4.436e-08
1373.0,1.285e-06
1374.0,7.706e-06
1375.0,1.352e-05
1376.0,1.559e-05
1377.0,6.784e-06
1378.0,7.238e-05
1379.0,2.851e-06
1380.0,3.461e-06
1381.0,7.975e-08
1382.0,3.732e-08
1383.0,4.701e-10
1384.0,5.272e-09
1385.0,4.666e-08
1386.0,2.801e-08
1387.0,6.662e-06
1388.0,1.389e-07
1389.0,3.063e-05
1390.0,2.595e-05
1391.0,1.664e-05
1392.0,1.022e-06
1393.0,6.183e-06
1394.0,2.06e-06
1395.0,1.177e-08
1396.0,1.859e-11
1397.0,2.23e-06
1398.0,7.846e-05
1399.0,5.05e-05
1400.0,5.93e-12
1401.0,3.725e-11
1402.0,0.000206
1403.0,0.00024
1404.0,7.064e-05
1405.0,4.68e-09
1406.0,0.0001615
1407.0,1.62e-05
1408.0,0.0001355
1409.0,3.681e-05
1410.0,3.474e-05
1411.0,0.0002144
1412.0,0.0003202
1413.0,0.004363
1414.0,2.825e-05
1415.0,1.234e-05
1416.0,0.008724
1417.0,0.002184
1418.0,0.002358
1419.0,0.0003497
1420.0,0.00143
1421.0,0.001588
1422.0,0.01146
1423.0,0.002114
1424.0,0.004108
1425.0,0.005771
1426.0,0.007163
1427.0,0.01451
1428.0,0.0006538
1429.0,0.01014
1430.0,0.01916
1431.0,0.02154
1432.0,0.0005074
1433.0,0.01306
1434.0,0.006334
1435.0,0.005309
1436.0,0.01179
1437.0,0.009086
