interpolation:linear
wavelength,value
280.0,1.6619999999999999e-22
280.5,5.503e-21
281.0,2.9580000000000003e-20
281.5,3.902e-19
282.0,5.826e-19
282.5,1.438e-18
283.0,4.543e-18
283.5,7.402e-18
284.0,1.223e-16
284.5,3.578e-16
285.0,5.928e-16
285.5,2.944e-15
286.0,1.188e-14
286.5,5.352e-14
287.0,1.538e-13
287.5,5.945e-13
288.0,2.11e-12
288.5,6.254e-12
289.0,1.646e-11
289.5,4.932e-11
290.0,1.365e-10
290.5,2.778e-10
291.0,5.958e-10
291.5,1.71e-09
292.0,3.431e-09
292.5,4.81e-09
293.0,1.03e-08
293.5,2.505e-08
294.0,3.917e-08
294.5,5.317e-08
295.0,9.004e-08
295.5,1.491e-07
296.0,2.875e-07
296.5,4.019e-07
297.0,5.432e-07
297.5,1.456e-06
298.0,2.291e-06
298.5,2.301e-06
299.0,5.064e-06
299.5,8.377e-06
300.0,9.185e-06
300.5,1.325e-05
301.0,2.38e-05
301.5,3.758e-05
302.0,3.194e-05
302.5,6.361e-05
303.0,0.0001175
303.5,0.0001518
304.0,0.0001475
304.5,0.0002409
305.0,0.0004165
305.5,0.0005194
306.0,0.0005197
306.5,0.0006844
307.0,0.001152
307.5,0.001733
308.0,0.001867
308.5,0.002346
309.0,0.002589
309.5,0.00338
310.0,0.003606
310.5,0.006017
311.0,0.00793
311.5,0.007818
312.0,0.008684
312.5,0.01132
313.0,0.01274
313.5,0.01196
314.0,0.01624
314.5,0.01606
315.0,0.02152
315.5,0.01707
316.0,0.01629
316.5,0.02523
317.0,0.03127
317.5,0.03185
318.0,0.02616
318.5,0.03585
319.0,0.04471
319.5,0.03365
320.0,0.04017
320.5,0.05559
321.0,0.05417
321.5,0.05241
322.0,0.05071
322.5,0.04434
323.0,0.04703
323.5,0.06162
324.0,0.07268
324.5,0.07188
325.0,0.05984
325.5,0.08099
326.0,0.1011
326.5,0.1047
327.0,0.1031
327.5,0.098
328.0,0.08345
328.5,0.09261
329.0,0.1158
329.5,0.1332
330.0,0.133
330.5,0.103
331.0,0.1038
331.5,0.1081
332.0,0.1211
332.5,0.1218
333.0,0.1203
333.5,0.1061
334.0,0.1082
334.5,0.1288
335.0,0.1232
335.5,0.1446
336.0,0.1001
336.5,0.1157
337.0,0.09375
337.5,0.1161
338.0,0.1162
338.5,0.1353
339.0,0.1342
339.5,0.129
340.0,0.1506
340.5,0.1361
341.0,0.1335
341.5,0.123
342.0,0.1472
342.5,0.1379
343.0,0.1514
343.5,0.1425
344.0,0.1047
344.5,0.1063
345.0,0.1412
345.5,0.1444
346.0,0.1229
346.5,0.1394
347.0,0.1495
347.5,0.1209
348.0,0.1381
348.5,0.1383
349.0,0.1284
349.5,0.1272
350.0,0.1575
350.5,0.1662
351.0,0.1484
351.5,0.144
352.0,0.155
352.5,0.1212
353.0,0.1529
353.5,0.1637
354.0,0.17
354.5,0.1725
355.0,0.172
355.5,0.1555
356.0,0.1629
356.5,0.1392
357.0,0.115
357.5,0.1409
358.0,0.1117
358.5,0.09553
359.0,0.1336
359.5,0.1703
360.0,0.1806
360.5,0.1445
361.0,0.1319
361.5,0.1521
362.0,0.1317
362.5,0.1825
363.0,0.1641
363.5,0.1513
364.0,0.1852
364.5,0.1584
365.0,0.1614
365.5,0.2027
366.0,0.215
366.5,0.2023
367.0,0.1971
367.5,0.2047
368.0,0.1793
368.5,0.181
369.0,0.1957
369.5,0.2087
370.0,0.2227
370.5,0.173
371.0,0.185
371.5,0.2316
372.0,0.1538
372.5,0.1846
373.0,0.1879
373.5,0.1224
374.0,0.178
374.5,0.1475
375.0,0.1435
375.5,0.2144
376.0,0.1778
376.5,0.1844
377.0,0.1954
377.5,0.2287
378.0,0.2481
378.5,0.2346
379.0,0.1937
379.5,0.177
380.0,0.1841
380.5,0.2232
381.0,0.224
381.5,0.1777
382.0,0.158
382.5,0.1349
383.0,0.125
383.5,0.1205
384.0,0.133
384.5,0.1958
385.0,0.1944
385.5,0.1812
386.0,0.1553
386.5,0.2043
387.0,0.1698
387.5,0.1909
388.0,0.1764
388.5,0.1745
389.0,0.1885
389.5,0.2285
390.0,0.2295
390.5,0.2114
391.0,0.2491
391.5,0.2542
392.0,0.2142
392.5,0.192
393.0,0.1069
393.5,0.07781
394.0,0.1584
394.5,0.2016
395.0,0.2462
395.5,0.2502
396.0,0.2171
396.5,0.1271
397.0,0.09545
397.5,0.1943
398.0,0.2721
398.5,0.2815
399.0,0.3052
399.5,0.3044
400.0,0.3162
401.0,0.3184
402.0,0.3366
403.0,0.3203
404.0,0.3158
405.0,0.3162
406.0,0.3116
407.0,0.3071
408.0,0.3194
409.0,0.3423
410.0,0.2995
411.0,0.325
412.0,0.3498
413.0,0.3414
414.0,0.3461
415.0,0.3476
416.0,0.3543
417.0,0.346
418.0,0.34
419.0,0.345
420.0,0.3439
421.0,0.3602
422.0,0.3428
423.0,0.3352
424.0,0.3548
425.0,0.3547
426.0,0.3462
427.0,0.3401
428.0,0.3316
429.0,0.3148
430.0,0.2759
431.0,0.2735
432.0,0.3538
433.0,0.3561
434.0,0.3309
435.0,0.3458
436.0,0.3904
437.0,0.3859
438.0,0.3518
439.0,0.3635
440.0,0.3756
441.0,0.3898
442.0,0.4184
443.0,0.4074
444.0,0.4169
445.0,0.408
446.0,0.3903
447.0,0.4228
448.0,0.4291
449.0,0.4318
450.0,0.4444
451.0,0.4612
452.0,0.4448
453.0,0.4189
454.0,0.438
455.0,0.4408
456.0,0.4517
457.0,0.4593
458.0,0.4433
459.0,0.4413
460.0,0.4423
461.0,0.4528
462.0,0.4569
463.0,0.4539
464.0,0.4474
465.0,0.4427
466.0,0.4477
467.0,0.4393
468.0,0.4446
469.0,0.447
470.0,0.4327
471.0,0.4325
472.0,0.4557
473.0,0.4499
474.0,0.45
475.0,0.4533
476.0,0.4388
477.0,0.4395
478.0,0.4519
479.0,0.4497
480.0,0.4511
481.0,0.4602
482.0,0.4635
483.0,0.4589
484.0,0.4501
485.0,0.4295
486.0,0.3761
487.0,0.3948
488.0,0.4331
489.0,0.4342
490.0,0.4574
491.0,0.4499
492.0,0.425
493.0,0.4391
494.0,0.4437
495.0,0.4476
496.0,0.4504
497.0,0.4573
498.0,0.4358
499.0,0.441
500.0,0.4277
501.0,0.4192
502.0,0.4122
503.0,0.4278
504.0,0.4137
505.0,0.4312
506.0,0.445
507.0,0.4237
508.0,0.4115
509.0,0.4239
510.0,0.4223
511.0,0.4344
512.0,0.4394
513.0,0.4161
514.0,0.4135
515.0,0.4094
516.0,0.4083
517.0,0.363
518.0,0.3815
519.0,0.4001
520.0,0.4145
521.0,0.4183
522.0,0.4184
523.0,0.4106
524.0,0.4247
525.0,0.4289
526.0,0.4094
527.0,0.3851
528.0,0.4067
529.0,0.4282
530.0,0.4217
531.0,0.4276
532.0,0.4128
533.0,0.4007
534.0,0.4128
535.0,0.4223
536.0,0.4265
537.0,0.4101
538.0,0.4175
539.0,0.414
540.0,0.3967
541.0,0.3983
542.0,0.4103
543.0,0.4067
544.0,0.413
545.0,0.4118
546.0,0.4129
547.0,0.4134
548.0,0.4088
549.0,0.4103
550.0,0.4152
551.0,0.4103
552.0,0.4132
553.0,0.4057
554.0,0.4153
555.0,0.4159
556.0,0.4103
557.0,0.3972
558.0,0.3937
559.0,0.3858
560.0,0.3902
561.0,0.3948
562.0,0.3913
563.0,0.4012
564.0,0.3897
565.0,0.3858
566.0,0.3797
567.0,0.3862
568.0,0.381
569.0,0.3687
570.0,0.369
571.0,0.3676
572.0,0.3742
573.0,0.3778
574.0,0.3761
575.0,0.3682
576.0,0.3649
577.0,0.3693
578.0,0.3647
579.0,0.3677
580.0,0.3771
581.0,0.3809
582.0,0.3898
583.0,0.3921
584.0,0.3964
585.0,0.3873
586.0,0.3794
587.0,0.3867
588.0,0.3732
589.0,0.3227
590.0,0.3381
591.0,0.3626
592.0,0.3552
593.0,0.3641
594.0,0.3601
595.0,0.3481
596.0,0.3684
597.0,0.3627
598.0,0.3638
599.0,0.365
600.0,0.3672
601.0,0.3654
602.0,0.3632
603.0,0.3698
604.0,0.3763
605.0,0.3748
606.0,0.374
607.0,0.3785
608.0,0.375
609.0,0.3763
610.0,0.3744
611.0,0.3768
612.0,0.3761
613.0,0.3718
614.0,0.3674
615.0,0.376
616.0,0.3641
617.0,0.3638
618.0,0.3781
619.0,0.3745
620.0,0.3769
621.0,0.3767
622.0,0.3719
623.0,0.3658
624.0,0.36
625.0,0.3591
626.0,0.3643
627.0,0.3668
628.0,0.3238
629.0,0.3515
630.0,0.3427
631.0,0.3569
632.0,0.3539
633.0,0.3673
634.0,0.3658
635.0,0.3726
636.0,0.3689
637.0,0.3759
638.0,0.381
639.0,0.3775
640.0,0.3748
641.0,0.3753
642.0,0.3744
643.0,0.3795
644.0,0.3791
645.0,0.3793
646.0,0.3682
647.0,0.3585
648.0,0.3592
649.0,0.3514
650.0,0.3599
651.0,0.3767
652.0,0.3544
653.0,0.3722
654.0,0.3686
655.0,0.3514
656.0,0.3139
657.0,0.3227
658.0,0.3639
659.0,0.3674
660.0,0.3694
661.0,0.3723
662.0,0.3718
663.0,0.3649
664.0,0.3712
665.0,0.3729
666.0,0.3738
667.0,0.3742
668.0,0.3752
669.0,0.3815
670.0,0.3802
671.0,0.3805
672.0,0.3775
673.0,0.3835
674.0,0.3824
675.0,0.3793
676.0,0.3822
677.0,0.3787
678.0,0.38
679.0,0.3741
680.0,0.3773
681.0,0.3749
682.0,0.3745
683.0,0.3739
684.0,0.372
685.0,0.3755
686.0,0.3729
687.0,0.1718
688.0,0.233
689.0,0.235
690.0,0.2584
691.0,0.2864
692.0,0.309
693.0,0.3058
694.0,0.3052
695.0,0.3278
696.0,0.3289
697.0,0.3603
698.0,0.3545
699.0,0.3382
700.0,0.3337
701.0,0.3271
702.0,0.3325
703.0,0.3339
704.0,0.3494
705.0,0.3498
706.0,0.3513
707.0,0.3523
708.0,0.3529
709.0,0.3567
710.0,0.3549
711.0,0.3556
712.0,0.3561
713.0,0.351
714.0,0.3528
715.0,0.3384
716.0,0.3378
717.0,0.2648
718.0,0.2411
719.0,0.2187
720.0,0.2261
721.0,0.2653
722.0,0.3208
723.0,0.2902
724.0,0.2509
725.0,0.2437
726.0,0.2558
727.0,0.2666
728.0,0.2418
729.0,0.2605
730.0,0.2732
731.0,0.2598
732.0,0.2882
733.0,0.3144
734.0,0.3251
735.0,0.3167
736.0,0.3157
737.0,0.3171
738.0,0.3297
739.0,0.3234
740.0,0.3342
741.0,0.3322
742.0,0.334
743.0,0.3429
744.0,0.3429
745.0,0.3437
746.0,0.3452
747.0,0.3462
748.0,0.3456
749.0,0.3417
750.0,0.3416
751.0,0.3382
752.0,0.3397
753.0,0.3416
754.0,0.3423
755.0,0.3403
756.0,0.3403
757.0,0.3408
758.0,0.3364
759.0,0.3244
760.0,0.0119
761.0,0.004024
762.0,0.09276
763.0,0.02529
764.0,0.05369
765.0,0.09252
766.0,0.1415
767.0,0.2137
768.0,0.28
769.0,0.2941
770.0,0.3136
771.0,0.3204
772.0,0.3224
773.0,0.3251
774.0,0.3238
775.0,0.3215
776.0,0.3256
777.0,0.3213
778.0,0.3193
779.0,0.3196
780.0,0.3179
781.0,0.3183
782.0,0.3204
783.0,0.3149
784.0,0.3166
785.0,0.3139
786.0,0.3171
787.0,0.3077
788.0,0.3021
789.0,0.3019
790.0,0.2888
791.0,0.2964
792.0,0.295
793.0,0.2897
794.0,0.2998
795.0,0.3034
796.0,0.287
797.0,0.2867
798.0,0.3022
799.0,0.299
800.0,0.2921
801.0,0.2894
802.0,0.2885
803.0,0.2853
804.0,0.2866
805.0,0.2878
806.0,0.2996
807.0,0.2952
808.0,0.2957
809.0,0.2874
810.0,0.2834
811.0,0.2802
812.0,0.267
813.0,0.2597
814.0,0.2156
815.0,0.2153
816.0,0.1986
817.0,0.2029
818.0,0.1924
819.0,0.226
820.0,0.2091
821.0,0.261
822.0,0.2509
823.0,0.1463
824.0,0.2371
825.0,0.2566
826.0,0.2413
827.0,0.2603
828.0,0.2047
829.0,0.241
830.0,0.2367
831.0,0.2375
832.0,0.2273
833.0,0.2491
834.0,0.2355
835.0,0.2705
836.0,0.2507
837.0,0.2714
838.0,0.2588
839.0,0.2678
840.0,0.2747
841.0,0.2691
842.0,0.2724
843.0,0.2752
844.0,0.2698
845.0,0.281
846.0,0.2803
847.0,0.2759
848.0,0.2729
849.0,0.2651
850.0,0.2542
851.0,0.2677
852.0,0.2665
853.0,0.2576
854.0,0.2215
855.0,0.2446
856.0,0.2668
857.0,0.2736
858.0,0.2712
859.0,0.2721
860.0,0.2729
861.0,0.2713
862.0,0.2758
863.0,0.2823
864.0,0.2683
865.0,0.266
866.0,0.2392
867.0,0.2497
868.0,0.2717
869.0,0.2662
870.0,0.2738
871.0,0.2701
872.0,0.2692
873.0,0.2687
874.0,0.2655
875.0,0.26
876.0,0.2627
877.0,0.2654
878.0,0.2681
879.0,0.264
880.0,0.2584
881.0,0.2539
882.0,0.2591
883.0,0.2606
884.0,0.2591
885.0,0.261
886.0,0.2465
887.0,0.2509
888.0,0.2537
889.0,0.2584
890.0,0.2538
891.0,0.2546
892.0,0.2441
893.0,0.2336
894.0,0.2188
895.0,0.1987
896.0,0.1853
897.0,0.1503
898.0,0.1681
899.0,0.1182
900.0,0.178
901.0,0.1239
902.0,0.1581
903.0,0.155
904.0,0.2169
905.0,0.2067
906.0,0.1909
907.0,0.1404
908.0,0.1463
909.0,0.1639
910.0,0.1343
911.0,0.1516
912.0,0.1587
913.0,0.1358
914.0,0.1369
915.0,0.1473
916.0,0.1234
917.0,0.1668
918.0,0.1256
919.0,0.1737
920.0,0.1839
921.0,0.1905
922.0,0.1624
923.0,0.185
924.0,0.1641
925.0,0.1611
926.0,0.1614
927.0,0.1883
928.0,0.1161
929.0,0.1004
930.0,0.07009
931.0,0.06631
932.0,0.03959
933.0,0.02897
934.0,0.009977
935.0,0.03208
936.0,0.01587
937.0,0.01597
938.0,0.02104
939.0,0.064
940.0,0.08346
941.0,0.05507
942.0,0.06762
943.0,0.03869
944.0,0.0467
945.0,0.05855
946.0,0.02235
947.0,0.05672
948.0,0.041
949.0,0.08381
950.0,0.01362
951.0,0.08333
952.0,0.03551
953.0,0.05195
954.0,0.07085
955.0,0.05335
956.0,0.05982
957.0,0.03515
958.0,0.09239
959.0,0.06392
960.0,0.0717
961.0,0.08806
962.0,0.08303
963.0,0.1025
964.0,0.09202
965.0,0.1017
966.0,0.1011
967.0,0.09959
968.0,0.1616
969.0,0.1642
970.0,0.1485
971.0,0.1825
972.0,0.1717
973.0,0.1369
974.0,0.1292
975.0,0.1379
976.0,0.1238
977.0,0.156
978.0,0.1419
979.0,0.152
980.0,0.1413
981.0,0.1818
982.0,0.1691
983.0,0.1599
984.0,0.1933
985.0,0.1681
986.0,0.2005
987.0,0.1925
988.0,0.1925
989.0,0.2025
990.0,0.1912
991.0,0.2026
992.0,0.2042
993.0,0.1955
994.0,0.2046
995.0,0.2051
996.0,0.2034
997.0,0.2041
998.0,0.2029
999.0,0.2023
1000.0,0.1998
1001.0,0.2035
1002.0,0.1935
1003.0,0.1997
1004.0,0.1936
1005.0,0.1881
1006.0,0.1947
1007.0,0.1992
1008.0,0.1974
1009.0,0.1954
1010.0,0.1942
1011.0,0.1983
1012.0,0.1958
1013.0,0.1981
1014.0,0.1967
1015.0,0.1953
1016.0,0.1943
1017.0,0.1946
1018.0,0.1944
1019.0,0.1886
1020.0,0.1931
1021.0,0.1932
1022.0,0.191
1023.0,0.193
1024.0,0.1888
1025.0,0.1934
1026.0,0.1921
1027.0,0.1918
1028.0,0.1913
1029.0,0.1888
1030.0,0.1907
1031.0,0.1897
1032.0,0.1894
1033.0,0.1865
1034.0,0.1866
1035.0,0.1871
1036.0,0.1879
1037.0,0.1849
1038.0,0.1857
1039.0,0.1854
1040.0,0.1847
1041.0,0.1852
1042.0,0.1839
1043.0,0.1833
1044.0,0.1838
1045.0,0.1812
1046.0,0.1791
1047.0,0.1806
1048.0,0.1814
1049.0,0.1806
1050.0,0.1796
1051.0,0.1792
1052.0,0.1783
1053.0,0.1767
1054.0,0.1768
1055.0,0.1767
1056.0,0.1757
1057.0,0.175
1058.0,0.1704
1059.0,0.1703
1060.0,0.1699
1061.0,0.1696
1062.0,0.1702
1063.0,0.1683
1064.0,0.1704
1065.0,0.1685
1066.0,0.1657
1067.0,0.1676
1068.0,0.1635
1069.0,0.1589
1070.0,0.1638
1071.0,0.1679
1072.0,0.1648
1073.0,0.1626
1074.0,0.1686
1075.0,0.156
1076.0,0.1682
1077.0,0.1629
1078.0,0.1586
1079.0,0.1663
1080.0,0.1604
1081.0,0.1531
1082.0,0.1592
1083.0,0.1607
1084.0,0.1519
1085.0,0.1611
1086.0,0.1416
1087.0,0.1497
1088.0,0.1598
1089.0,0.1507
1090.0,0.1455
1091.0,0.1583
1092.0,0.1586
1093.0,0.1239
1094.0,0.1437
1095.0,0.1295
1096.0,0.1212
1097.0,0.155
1098.0,0.1176
1099.0,0.1242
1100.0,0.1117
1101.0,0.1145
1102.0,0.1065
1103.0,0.1035
1104.0,0.1039
1105.0,0.1205
1106.0,0.07652
1107.0,0.1116
1108.0,0.08529
1109.0,0.08684
1110.0,0.1084
1111.0,0.06125
1112.0,0.08674
1113.0,0.04387
1114.0,0.04939
1115.0,0.03998
1116.0,0.02644
1117.0,0.00554
1118.0,0.0299
1119.0,0.01075
1120.0,0.01289
1121.0,0.01905
1122.0,0.005159
1123.0,0.0118
1124.0,0.009902
1125.0,0.01393
1126.0,0.002339
1127.0,0.01597
1128.0,0.006476
1129.0,0.007119
1130.0,0.004272
1131.0,0.04001
1132.0,0.02934
1133.0,0.01356
1134.0,0.001754
1135.0,0.0007686
1136.0,0.009758
1137.0,0.03725
1138.0,0.02519
1139.0,0.05003
1140.0,0.03693
1141.0,0.02412
1142.0,0.02984
1143.0,0.04806
1144.0,0.01168
1145.0,0.01301
1146.0,0.01399
1147.0,0.00256
1148.0,0.04066
1149.0,0.02912
1150.0,0.01374
1151.0,0.02502
1152.0,0.0348
1153.0,0.03725
1154.0,0.01309
1155.0,0.05205
1156.0,0.04421
1157.0,0.05546
1158.0,0.05463
1159.0,0.06156
1160.0,0.05067
1161.0,0.06997
1162.0,0.06945
1163.0,0.1084
1164.0,0.08786
1165.0,0.07768
1166.0,0.08157
1167.0,0.0913
1168.0,0.0912
1169.0,0.09466
1170.0,0.1075
1171.0,0.1048
1172.0,0.1099
1173.0,0.1074
1174.0,0.06667
1175.0,0.1079
1176.0,0.1251
1177.0,0.1156
1178.0,0.07904
1179.0,0.1261
1180.0,0.1056
1181.0,0.1092
1182.0,0.06639
1183.0,0.1089
1184.0,0.09895
1185.0,0.09264
1186.0,0.1194
1187.0,0.1106
1188.0,0.06577
1189.0,0.1026
1190.0,0.1174
1191.0,0.1052
1192.0,0.1197
1193.0,0.1126
1194.0,0.1174
1195.0,0.1068
1196.0,0.1006
1197.0,0.1192
1198.0,0.1072
1199.0,0.0826
1200.0,0.1111
1201.0,0.1039
1202.0,0.1062
1203.0,0.1034
1204.0,0.08699
1205.0,0.1109
1206.0,0.1268
1207.0,0.1045
1208.0,0.1055
1209.0,0.1081
1210.0,0.1146
1211.0,0.1062
1212.0,0.09986
1213.0,0.1201
1214.0,0.1041
1215.0,0.1017
1216.0,0.1203
1217.0,0.1155
1218.0,0.1192
1219.0,0.1166
1220.0,0.1195
1221.0,0.1218
1222.0,0.1179
1223.0,0.116
1224.0,0.1134
1225.0,0.1206
1226.0,0.1228
1227.0,0.1086
1228.0,0.1245
1229.0,0.1229
1230.0,0.1199
1231.0,0.1264
1232.0,0.1255
1233.0,0.1171
1234.0,0.1272
1235.0,0.1257
1236.0,0.1271
1237.0,0.1238
1238.0,0.1267
1239.0,0.1251
1240.0,0.1258
1241.0,0.1241
1242.0,0.1248
1243.0,0.1238
1244.0,0.1244
1245.0,0.1251
1246.0,0.1244
1247.0,0.1236
1248.0,0.123
1249.0,0.1239
1250.0,0.1228
1251.0,0.1205
1252.0,0.1214
1253.0,0.1189
1254.0,0.1166
1255.0,0.1209
1256.0,0.1147
1257.0,0.1135
1258.0,0.1178
1259.0,0.1093
1260.0,0.1103
1261.0,0.09895
1262.0,0.09333
1263.0,0.09337
1264.0,0.08038
1265.0,0.09287
1266.0,0.08587
1267.0,0.0898
1268.0,0.08136
1269.0,0.03118
1270.0,0.08852
1271.0,0.0993
1272.0,0.1002
1273.0,0.09851
1274.0,0.09963
1275.0,0.102
1276.0,0.104
1277.0,0.1061
1278.0,0.1102
1279.0,0.1091
1280.0,0.1079
1281.0,0.1039
1282.0,0.1018
1283.0,0.1093
1284.0,0.1116
1285.0,0.1126
1286.0,0.115
1287.0,0.1116
1288.0,0.1121
1289.0,0.1052
1290.0,0.1112
1291.0,0.1134
1292.0,0.1007
1293.0,0.1099
1294.0,0.1088
1295.0,0.1063
1296.0,0.098
1297.0,0.0903
1298.0,0.1026
1299.0,0.1105
1300.0,0.08481
1301.0,0.08884
1302.0,0.1024
1303.0,0.0845
1304.0,0.06446
1305.0,0.09995
1306.0,0.09899
1307.0,0.06864
1308.0,0.08598
1309.0,0.09678
1310.0,0.06657
1311.0,0.08059
1312.0,0.07745
1313.0,0.07391
1314.0,0.06334
1315.0,0.06091
1316.0,0.07782
1317.0,0.07254
1318.0,0.08221
1319.0,0.05523
1320.0,0.05516
1321.0,0.06753
1322.0,0.06645
1323.0,0.04293
1324.0,0.05457
1325.0,0.07557
1326.0,0.06046
1327.0,0.05634
1328.0,0.04604
1329.0,0.0287
1330.0,0.04057
1331.0,0.01865
1332.0,0.02078
1333.0,0.02999
1334.0,0.02951
1335.0,0.04204
1336.0,0.0297
1337.0,0.02555
1338.0,0.02719
1339.0,0.0278
1340.0,0.02881
1341.0,0.0239
1342.0,0.0257
1343.0,0.01161
1344.0,0.007516
1345.0,0.01029
1346.0,0.002756
1347.0,0.002452
1348.0,4.801e-05
1349.0,0.0002215
1350.0,0.0002726
1351.0,2.26e-05
1352.0,1.857e-06
1353.0,6.395e-08
1354.0,3.094e-07
1355.0,1.421e-09
1356.0,3.105e-08
1357.0,4.684e-08
1358.0,1.677e-09
1359.0,2.03e-10
1360.0,7.442e-10
1361.0,8.18e-13
1362.0,2.237e-15
1363.0,9.871e-10
1364.0,4.086e-10
1365.0,7.811e-16
1366.0,4.294e-09
1367.0,1.779e-09
1368.0,6.032e-18
1369.0,1.506e-10
1370.0,7.382e-11
1371.0,4.179e-12
1372.0,9.685e-10
1373.0,2.117e-08
1374.0,1.182e-07
1375.0,1.948e-07
1376.0,2.807e-07
1377.0,1.191e-07
1378.0,1.173e-06
1379.0,5.207e-08
1380.0,5.382e-08
1381.0,1.322e-09
1382.0,8.427e-10
1383.0,1.252e-11
1384.0,1.627e-10
1385.0,8.383e-10
1386.0,7.346e-10
1387.0,9.825e-08
1388.0,2.246e-09
1389.0,4.583e-07
1390.0,3.675e-07
1391.0,2.457e-07
1392.0,1.634e-08
1393.0,1.031e-07
1394.0,3.263e-08
1395.0,2.304e-10
1396.0,1.065e-12
1397.0,3.508e-08
1398.0,1.158e-06
1399.0,7.747e-07
1400.0,4.553e-13
1401.0,1.89e-12
1402.0,7.839e-06
1403.0,6.987e-06
1404.0,1.764e-06
1405.0,1.062e-10
1406.0,2.874e-06
1407.0,5.334e-07
1408.0,2.577e-06
1409.0,5.237e-07
1410.0,7.316e-07
1411.0,6.61e-06
1412.0,1.32e-05
1413.0,0.0003315
1414.0,6.475e-07
1415.0,2.429e-07
1416.0,0.001308
1417.0,0.0002214
1418.0,0.000163
1419.0,2.217e-05
1420.0,9.774e-05
1421.0,0.0001501
1422.0,0.001698
1423.0,0.0002996
1424.0,0.0006774
1425.0,0.0007801
