interpolation:linear
wavelength,value
280.0,3.931e-21
280.5,1.221e-19
281.0,6.425e-19
281.5,4.274e-19
282.0,1.19e-18
282.5,3.105e-18
283.0,9.98e-18
283.5,1.63e-17
284.0,2.623e-16
284.5,7.538e-16
285.0,1.657e-15
285.5,8.18e-15
286.0,3.282e-14
286.5,1.452e-13
287.0,4.113e-13
287.5,1.555e-12
288.0,4.033e-12
288.5,1.367e-11
289.0,3.942e-11
289.5,1.265e-10
290.0,3.646e-10
290.5,7.633e-10
291.0,1.682e-09
291.5,5.217e-09
292.0,1.142e-08
292.5,1.741e-08
293.0,4.153e-08
293.5,1.171e-07
294.0,2.037e-07
294.5,2.643e-07
295.0,4.979e-07
295.5,1.343e-06
296.0,2.691e-06
296.5,3.921e-06
297.0,5.502e-06
297.5,1.564e-05
298.0,2.599e-05
298.5,2.731e-05
299.0,6.296e-05
299.5,0.0001134
300.0,0.0001312
300.5,0.0002007
301.0,0.0004007
301.5,0.0007105
302.0,0.0006487
302.5,0.001274
303.0,0.002303
303.5,0.002911
304.0,0.002742
304.5,0.004113
305.0,0.00627
305.5,0.007203
306.0,0.00698
306.5,0.008705
307.0,0.01295
307.5,0.01724
308.0,0.01822
308.5,0.02153
309.0,0.02116
309.5,0.0242
310.0,0.0243
310.5,0.03936
311.0,0.04938
311.5,0.04767
312.0,0.04762
312.5,0.0579
313.0,0.06277
313.5,0.061
314.0,0.07618
314.5,0.06743
315.0,0.08859
315.5,0.0742
316.0,0.0647
316.5,0.09277
317.0,0.1152
317.5,0.12
318.0,0.09349
318.5,0.1158
319.0,0.1373
319.5,0.1122
320.0,0.1356
320.5,0.1692
321.0,0.1503
321.5,0.1441
322.0,0.1541
322.5,0.134
323.0,0.1332
323.5,0.1635
324.0,0.1908
324.5,0.1939
325.0,0.1677
325.5,0.2153
326.0,0.2632
326.5,0.2632
327.0,0.2625
327.5,0.2538
328.0,0.2264
328.5,0.2375
329.0,0.2838
329.5,0.3221
330.0,0.3251
330.5,0.2606
331.0,0.2657
331.5,0.2698
332.0,0.2911
332.5,0.2877
333.0,0.2871
333.5,0.2602
334.0,0.2667
334.5,0.3073
335.0,0.2886
335.5,0.3371
336.0,0.2333
336.5,0.2734
337.0,0.2245
337.5,0.2793
338.0,0.2724
338.5,0.3145
339.0,0.3114
339.5,0.2996
340.0,0.3521
340.5,0.3174
341.0,0.3096
341.5,0.2843
342.0,0.3399
342.5,0.3181
343.0,0.3499
343.5,0.3295
344.0,0.2436
344.5,0.2461
345.0,0.3257
345.5,0.3326
346.0,0.2828
346.5,0.3203
347.0,0.3439
347.5,0.2781
348.0,0.3171
348.5,0.317
349.0,0.2942
349.5,0.2914
350.0,0.3605
350.5,0.3803
351.0,0.3398
351.5,0.3303
352.0,0.3548
352.5,0.277
353.0,0.349
353.5,0.3732
354.0,0.3875
354.5,0.3931
355.0,0.3919
355.5,0.3541
356.0,0.3706
356.5,0.3165
357.0,0.2615
357.5,0.3202
358.0,0.2539
358.5,0.217
359.0,0.3035
359.5,0.3869
360.0,0.4102
360.5,0.3279
361.0,0.299
361.5,0.3444
362.0,0.298
362.5,0.4125
363.0,0.3706
363.5,0.3415
364.0,0.4178
364.5,0.3572
365.0,0.3639
365.5,0.4568
366.0,0.4841
366.5,0.455
367.0,0.4432
367.5,0.46
368.0,0.4027
368.5,0.4064
369.0,0.4391
369.5,0.4681
370.0,0.4991
370.5,0.3875
371.0,0.4142
371.5,0.5183
372.0,0.344
372.5,0.4126
373.0,0.4198
373.5,0.2733
374.0,0.3971
374.5,0.329
375.0,0.3199
375.5,0.4777
376.0,0.3961
376.5,0.4105
377.0,0.4347
377.5,0.5087
378.0,0.5516
378.5,0.5214
379.0,0.4304
379.5,0.3932
380.0,0.4089
380.5,0.4954
381.0,0.4966
381.5,0.3938
382.0,0.3498
382.5,0.2983
383.0,0.2763
383.5,0.2662
384.0,0.2937
384.5,0.4321
385.0,0.4286
385.5,0.3992
386.0,0.342
386.5,0.4494
387.0,0.3735
387.5,0.4196
388.0,0.3875
388.5,0.3832
389.0,0.4137
389.5,0.5012
390.0,0.5031
390.5,0.4631
391.0,0.5453
391.5,0.5563
392.0,0.4687
392.5,0.4197
393.0,0.2336
393.5,0.1698
394.0,0.3457
394.5,0.4396
395.0,0.5365
395.5,0.5451
396.0,0.4727
396.5,0.2764
397.0,0.2075
397.5,0.4221
398.0,0.5912
398.5,0.6112
399.0,0.662
399.5,0.66
400.0,0.6854
401.0,0.695
402.0,0.7336
403.0,0.6972
404.0,0.6867
405.0,0.6868
406.0,0.676
407.0,0.6654
408.0,0.6915
409.0,0.7404
410.0,0.6472
411.0,0.7013
412.0,0.7535
413.0,0.735
414.0,0.7443
415.0,0.7465
416.0,0.7599
417.0,0.7414
418.0,0.7279
419.0,0.7377
420.0,0.7346
421.0,0.7688
422.0,0.7309
423.0,0.7142
424.0,0.7555
425.0,0.7544
426.0,0.7351
427.0,0.7215
428.0,0.703
429.0,0.6661
430.0,0.5831
431.0,0.578
432.0,0.7466
433.0,0.7509
434.0,0.6973
435.0,0.7284
436.0,0.821
437.0,0.8102
438.0,0.7379
439.0,0.7632
440.0,0.7877
441.0,0.8164
442.0,0.8758
443.0,0.853
444.0,0.8717
445.0,0.8529
446.0,0.8143
447.0,0.8805
448.0,0.8942
449.0,0.8981
450.0,0.9233
451.0,0.9577
452.0,0.9229
453.0,0.8681
454.0,0.9065
455.0,0.9122
456.0,0.9339
457.0,0.9496
458.0,0.9172
459.0,0.9125
460.0,0.915
461.0,0.9362
462.0,0.9435
463.0,0.9371
464.0,0.9218
465.0,0.9104
466.0,0.9193
467.0,0.9025
468.0,0.9132
469.0,0.918
470.0,0.8888
471.0,0.8877
472.0,0.9354
473.0,0.9233
474.0,0.9245
475.0,0.9324
476.0,0.9044
477.0,0.9069
478.0,0.9321
479.0,0.9265
480.0,0.9284
481.0,0.9459
482.0,0.951
483.0,0.9396
484.0,0.9205
485.0,0.8771
486.0,0.7669
487.0,0.8038
488.0,0.8818
489.0,0.8846
490.0,0.9307
491.0,0.9147
492.0,0.8638
493.0,0.8922
494.0,0.9011
495.0,0.9088
496.0,0.9145
497.0,0.9286
498.0,0.8852
499.0,0.8965
500.0,0.8703
501.0,0.8543
502.0,0.8421
503.0,0.8763
504.0,0.8535
505.0,0.8845
506.0,0.9131
507.0,0.8689
508.0,0.842
509.0,0.8657
510.0,0.8612
511.0,0.8844
512.0,0.8941
513.0,0.8463
514.0,0.8405
515.0,0.8322
516.0,0.8301
517.0,0.7377
518.0,0.7755
519.0,0.8134
520.0,0.843
521.0,0.851
522.0,0.8517
523.0,0.8363
524.0,0.8662
525.0,0.8763
526.0,0.837
527.0,0.7886
528.0,0.834
529.0,0.879
530.0,0.8664
531.0,0.8792
532.0,0.8489
533.0,0.8241
534.0,0.8485
535.0,0.8671
536.0,0.8751
537.0,0.8406
538.0,0.8555
539.0,0.8483
540.0,0.8133
541.0,0.8185
542.0,0.8441
543.0,0.8353
544.0,0.8497
545.0,0.8471
546.0,0.8507
547.0,0.8504
548.0,0.8403
549.0,0.8429
550.0,0.8529
551.0,0.8426
552.0,0.8485
553.0,0.8333
554.0,0.8532
555.0,0.8549
556.0,0.8437
557.0,0.8174
558.0,0.8112
559.0,0.796
560.0,0.8059
561.0,0.8162
562.0,0.8102
563.0,0.8322
564.0,0.8095
565.0,0.8024
566.0,0.7906
567.0,0.8054
568.0,0.7979
569.0,0.7784
570.0,0.7782
571.0,0.7737
572.0,0.7919
573.0,0.8003
574.0,0.7977
575.0,0.7826
576.0,0.7755
577.0,0.784
578.0,0.7724
579.0,0.7757
580.0,0.7909
581.0,0.7953
582.0,0.8106
583.0,0.8129
584.0,0.8201
585.0,0.8001
586.0,0.7837
587.0,0.8007
588.0,0.7805
589.0,0.69
590.0,0.7217
591.0,0.7646
592.0,0.7544
593.0,0.7663
594.0,0.7607
595.0,0.7414
596.0,0.7718
597.0,0.7631
598.0,0.7615
599.0,0.7624
600.0,0.7638
601.0,0.7578
602.0,0.7527
603.0,0.7652
604.0,0.778
605.0,0.774
606.0,0.771
607.0,0.7787
608.0,0.7703
609.0,0.7717
610.0,0.7663
611.0,0.7704
612.0,0.7682
613.0,0.7586
614.0,0.7483
615.0,0.7647
616.0,0.7396
617.0,0.7382
618.0,0.7667
619.0,0.7589
620.0,0.7638
621.0,0.7644
622.0,0.7553
623.0,0.7438
624.0,0.7311
625.0,0.7295
626.0,0.7402
627.0,0.7482
628.0,0.6954
629.0,0.7294
630.0,0.7125
631.0,0.7297
632.0,0.7211
633.0,0.7435
634.0,0.7367
635.0,0.7483
636.0,0.7386
637.0,0.7509
638.0,0.7584
639.0,0.75
640.0,0.7429
641.0,0.7425
642.0,0.7393
643.0,0.7493
644.0,0.747
645.0,0.7481
646.0,0.7303
647.0,0.7207
648.0,0.7213
649.0,0.7072
650.0,0.7118
651.0,0.7429
652.0,0.7107
653.0,0.7331
654.0,0.7251
655.0,0.6974
656.0,0.6186
657.0,0.6353
658.0,0.7123
659.0,0.7176
660.0,0.7207
661.0,0.7257
662.0,0.727
663.0,0.7127
664.0,0.7215
665.0,0.7223
666.0,0.723
667.0,0.7224
668.0,0.7229
669.0,0.7342
670.0,0.731
671.0,0.7309
672.0,0.7247
673.0,0.7357
674.0,0.733
675.0,0.7264
676.0,0.7314
677.0,0.7242
678.0,0.7263
679.0,0.7146
680.0,0.7204
681.0,0.7156
682.0,0.7147
683.0,0.7134
684.0,0.7098
685.0,0.7159
686.0,0.7116
687.0,0.4579
688.0,0.5435
689.0,0.5457
690.0,0.5747
691.0,0.6075
692.0,0.6318
693.0,0.6264
694.0,0.6212
695.0,0.6487
696.0,0.6497
697.0,0.6917
698.0,0.6809
699.0,0.6631
700.0,0.6551
701.0,0.6479
702.0,0.653
703.0,0.6542
704.0,0.676
705.0,0.677
706.0,0.6768
707.0,0.6774
708.0,0.6789
709.0,0.6804
710.0,0.6801
711.0,0.6793
712.0,0.6776
713.0,0.6705
714.0,0.6731
715.0,0.6513
716.0,0.6515
717.0,0.5598
718.0,0.5134
719.0,0.4697
720.0,0.4916
721.0,0.5459
722.0,0.628
723.0,0.5829
724.0,0.5231
725.0,0.5139
726.0,0.5383
727.0,0.5473
728.0,0.5124
729.0,0.5335
730.0,0.5644
731.0,0.5395
732.0,0.5791
733.0,0.6149
734.0,0.63
735.0,0.6167
736.0,0.6159
737.0,0.6183
738.0,0.6291
739.0,0.6167
740.0,0.6332
741.0,0.6272
742.0,0.628
743.0,0.6441
744.0,0.6424
745.0,0.6426
746.0,0.6456
747.0,0.647
748.0,0.6457
749.0,0.6383
750.0,0.638
751.0,0.6315
752.0,0.6342
753.0,0.6375
754.0,0.6389
755.0,0.6353
756.0,0.635
757.0,0.6359
758.0,0.628
759.0,0.6144
760.0,0.08844
761.0,0.04397
762.0,0.298
763.0,0.1401
764.0,0.2182
765.0,0.2979
766.0,0.3735
767.0,0.4793
768.0,0.5597
769.0,0.573
770.0,0.5941
771.0,0.5997
772.0,0.6012
773.0,0.6054
774.0,0.6026
775.0,0.598
776.0,0.6053
777.0,0.5973
778.0,0.5937
779.0,0.5942
780.0,0.5909
781.0,0.5915
782.0,0.5952
783.0,0.5849
784.0,0.5877
785.0,0.5833
786.0,0.5897
787.0,0.5787
788.0,0.5712
789.0,0.5709
790.0,0.5548
791.0,0.5605
792.0,0.5565
793.0,0.5474
794.0,0.5578
795.0,0.5669
796.0,0.5482
797.0,0.5488
798.0,0.5661
799.0,0.5622
800.0,0.5521
801.0,0.5501
802.0,0.5486
803.0,0.5442
804.0,0.5451
805.0,0.5438
806.0,0.5597
807.0,0.5528
808.0,0.5534
809.0,0.5425
810.0,0.5377
811.0,0.5377
812.0,0.5214
813.0,0.5101
814.0,0.4459
815.0,0.4432
816.0,0.4122
817.0,0.42
818.0,0.4037
819.0,0.4538
820.0,0.4264
821.0,0.502
822.0,0.487
823.0,0.3256
824.0,0.4716
825.0,0.4932
826.0,0.4734
827.0,0.5007
828.0,0.4212
829.0,0.4707
830.0,0.4642
831.0,0.4659
832.0,0.451
833.0,0.4815
834.0,0.4633
835.0,0.5115
836.0,0.488
837.0,0.513
838.0,0.4963
839.0,0.5054
840.0,0.5167
841.0,0.509
842.0,0.5107
843.0,0.511
844.0,0.5035
845.0,0.521
846.0,0.5188
847.0,0.5093
848.0,0.5059
849.0,0.4915
850.0,0.4709
851.0,0.4983
852.0,0.4949
853.0,0.4766
854.0,0.4113
855.0,0.4522
856.0,0.494
857.0,0.5052
858.0,0.5014
859.0,0.502
860.0,0.503
861.0,0.5002
862.0,0.5081
863.0,0.5201
864.0,0.4941
865.0,0.4898
866.0,0.4404
867.0,0.4596
868.0,0.5002
869.0,0.4898
870.0,0.5038
871.0,0.4969
872.0,0.4952
873.0,0.4942
874.0,0.4883
875.0,0.4784
876.0,0.4834
877.0,0.4883
878.0,0.4935
879.0,0.4859
880.0,0.4755
881.0,0.4683
882.0,0.4783
883.0,0.48
884.0,0.4777
885.0,0.4813
886.0,0.4582
887.0,0.4635
888.0,0.47
889.0,0.4759
890.0,0.4713
891.0,0.4708
892.0,0.4565
893.0,0.4414
894.0,0.4243
895.0,0.3989
896.0,0.375
897.0,0.3195
898.0,0.3501
899.0,0.2632
900.0,0.3601
901.0,0.2759
902.0,0.328
903.0,0.3298
904.0,0.4211
905.0,0.4057
906.0,0.379
907.0,0.3039
908.0,0.3106
909.0,0.3382
910.0,0.2958
911.0,0.3174
912.0,0.3325
913.0,0.3
914.0,0.2981
915.0,0.3232
916.0,0.2728
917.0,0.3498
918.0,0.2795
919.0,0.3571
920.0,0.3628
921.0,0.3776
922.0,0.335
923.0,0.3649
924.0,0.343
925.0,0.3356
926.0,0.339
927.0,0.3821
928.0,0.2731
929.0,0.2473
930.0,0.1911
931.0,0.1815
932.0,0.1274
933.0,0.1018
934.0,0.05229
935.0,0.1056
936.0,0.06366
937.0,0.06429
938.0,0.07994
939.0,0.1758
940.0,0.2139
941.0,0.1582
942.0,0.1851
943.0,0.1192
944.0,0.128
945.0,0.1638
946.0,0.07992
947.0,0.1636
948.0,0.1197
949.0,0.2224
950.0,0.05668
951.0,0.2196
952.0,0.1135
953.0,0.1495
954.0,0.1867
955.0,0.1516
956.0,0.1494
957.0,0.1133
958.0,0.2161
959.0,0.1679
960.0,0.1882
961.0,0.2142
962.0,0.2024
963.0,0.2359
964.0,0.2153
965.0,0.2352
966.0,0.2346
967.0,0.2334
968.0,0.3223
969.0,0.3357
970.0,0.3072
971.0,0.3557
972.0,0.3395
973.0,0.2914
974.0,0.276
975.0,0.2881
976.0,0.2713
977.0,0.3133
978.0,0.2957
979.0,0.311
980.0,0.2916
981.0,0.3538
982.0,0.3368
983.0,0.3224
984.0,0.3663
985.0,0.3355
986.0,0.3739
987.0,0.3653
988.0,0.3647
989.0,0.3734
990.0,0.3625
991.0,0.3744
992.0,0.3767
993.0,0.3671
994.0,0.3767
995.0,0.3764
996.0,0.3745
997.0,0.3752
998.0,0.3733
999.0,0.372
1000.0,0.3691
1001.0,0.3741
1002.0,0.3626
1003.0,0.3674
1004.0,0.3581
1005.0,0.3454
1006.0,0.3587
1007.0,0.3664
1008.0,0.3642
1009.0,0.362
1010.0,0.3603
1011.0,0.3646
1012.0,0.3612
1013.0,0.3637
1014.0,0.3612
1015.0,0.3588
1016.0,0.3571
1017.0,0.358
1018.0,0.3568
1019.0,0.3487
1020.0,0.3548
1021.0,0.3544
1022.0,0.3515
1023.0,0.3552
1024.0,0.3501
1025.0,0.3551
1026.0,0.3535
1027.0,0.3527
1028.0,0.3519
1029.0,0.3477
1030.0,0.3502
1031.0,0.3488
1032.0,0.3478
1033.0,0.3426
1034.0,0.3426
1035.0,0.3437
1036.0,0.3454
1037.0,0.3398
1038.0,0.3413
1039.0,0.3411
1040.0,0.3397
1041.0,0.341
1042.0,0.3386
1043.0,0.3375
1044.0,0.3387
1045.0,0.334
1046.0,0.3303
1047.0,0.3333
1048.0,0.3351
1049.0,0.3338
1050.0,0.3322
1051.0,0.3317
1052.0,0.3303
1053.0,0.3276
1054.0,0.3283
1055.0,0.3284
1056.0,0.3272
1057.0,0.3261
1058.0,0.318
1059.0,0.3183
1060.0,0.3178
1061.0,0.3173
1062.0,0.3189
1063.0,0.3157
1064.0,0.3195
1065.0,0.317
1066.0,0.3109
1067.0,0.3148
1068.0,0.3078
1069.0,0.2984
1070.0,0.3084
1071.0,0.3137
1072.0,0.3097
1073.0,0.3053
1074.0,0.3137
1075.0,0.2967
1076.0,0.3133
1077.0,0.307
1078.0,0.3009
1079.0,0.3086
1080.0,0.3023
1081.0,0.292
1082.0,0.2978
1083.0,0.299
1084.0,0.291
1085.0,0.3031
1086.0,0.2748
1087.0,0.2849
1088.0,0.2984
1089.0,0.2881
1090.0,0.281
1091.0,0.2971
1092.0,0.2966
1093.0,0.2481
1094.0,0.271
1095.0,0.2588
1096.0,0.2468
1097.0,0.2898
1098.0,0.2426
1099.0,0.2536
1100.0,0.2343
1101.0,0.2377
1102.0,0.2261
1103.0,0.2232
1104.0,0.2235
1105.0,0.2475
1106.0,0.1836
1107.0,0.2339
1108.0,0.1949
1109.0,0.1959
1110.0,0.2314
1111.0,0.1524
1112.0,0.1947
1113.0,0.1193
1114.0,0.1337
1115.0,0.1106
1116.0,0.08562
1117.0,0.02862
1118.0,0.09405
1119.0,0.0443
1120.0,0.05556
1121.0,0.07515
1122.0,0.02961
1123.0,0.05031
1124.0,0.04243
1125.0,0.05594
1126.0,0.0175
1127.0,0.06329
1128.0,0.03568
1129.0,0.03815
1130.0,0.02436
1131.0,0.1254
1132.0,0.09737
1133.0,0.05878
1134.0,0.01347
1135.0,0.005143
1136.0,0.04801
1137.0,0.1222
1138.0,0.08552
1139.0,0.1334
1140.0,0.1092
1141.0,0.08132
1142.0,0.09471
1143.0,0.1369
1144.0,0.04507
1145.0,0.05675
1146.0,0.06116
1147.0,0.0195
1148.0,0.1183
1149.0,0.09277
1150.0,0.04882
1151.0,0.08483
1152.0,0.1065
1153.0,0.1053
1154.0,0.05478
1155.0,0.139
1156.0,0.124
1157.0,0.1411
1158.0,0.1395
1159.0,0.1519
1160.0,0.1284
1161.0,0.1613
1162.0,0.1618
1163.0,0.2236
1164.0,0.19
1165.0,0.1774
1166.0,0.1775
1167.0,0.1943
1168.0,0.196
1169.0,0.2012
1170.0,0.2201
1171.0,0.2145
1172.0,0.2193
1173.0,0.2197
1174.0,0.1534
1175.0,0.2153
1176.0,0.2385
1177.0,0.2277
1178.0,0.1685
1179.0,0.2404
1180.0,0.2127
1181.0,0.2196
1182.0,0.1488
1183.0,0.2167
1184.0,0.2021
1185.0,0.1942
1186.0,0.233
1187.0,0.2211
1188.0,0.151
1189.0,0.2058
1190.0,0.2278
1191.0,0.2148
1192.0,0.2311
1193.0,0.221
1194.0,0.2281
1195.0,0.2147
1196.0,0.2062
1197.0,0.2287
1198.0,0.2086
1199.0,0.1753
1200.0,0.2181
1201.0,0.2096
1202.0,0.2089
1203.0,0.2069
1204.0,0.1799
1205.0,0.2144
1206.0,0.238
1207.0,0.2081
1208.0,0.2055
1209.0,0.2099
1210.0,0.2191
1211.0,0.2079
1212.0,0.2044
1213.0,0.2296
1214.0,0.2097
1215.0,0.2056
1216.0,0.229
1217.0,0.2225
1218.0,0.2271
1219.0,0.2241
1220.0,0.2274
1221.0,0.2298
1222.0,0.2237
1223.0,0.2214
1224.0,0.2197
1225.0,0.2283
1226.0,0.2301
1227.0,0.2113
1228.0,0.2315
1229.0,0.2302
1230.0,0.2261
1231.0,0.2331
1232.0,0.2317
1233.0,0.2229
1234.0,0.2331
1235.0,0.2315
1236.0,0.2333
1237.0,0.2297
1238.0,0.2325
1239.0,0.2295
1240.0,0.2304
1241.0,0.2291
1242.0,0.2288
1243.0,0.227
1244.0,0.2285
1245.0,0.2295
1246.0,0.2282
1247.0,0.2273
1248.0,0.227
1249.0,0.2278
1250.0,0.2264
1251.0,0.2233
1252.0,0.2235
1253.0,0.2215
1254.0,0.219
1255.0,0.2232
1256.0,0.2164
1257.0,0.2151
1258.0,0.2196
1259.0,0.2108
1260.0,0.212
1261.0,0.199
1262.0,0.1925
1263.0,0.1928
1264.0,0.1767
1265.0,0.1916
1266.0,0.1836
1267.0,0.1874
1268.0,0.1768
1269.0,0.1042
1270.0,0.1865
1271.0,0.1985
1272.0,0.1993
1273.0,0.197
1274.0,0.1978
1275.0,0.2009
1276.0,0.203
1277.0,0.2046
1278.0,0.209
1279.0,0.2071
1280.0,0.2045
1281.0,0.1953
1282.0,0.1885
1283.0,0.203
1284.0,0.2078
1285.0,0.2092
1286.0,0.2122
1287.0,0.2086
1288.0,0.2086
1289.0,0.2014
1290.0,0.2068
1291.0,0.2099
1292.0,0.1959
1293.0,0.2055
1294.0,0.204
1295.0,0.2026
1296.0,0.1927
1297.0,0.1816
1298.0,0.1968
1299.0,0.2058
1300.0,0.1721
1301.0,0.1778
1302.0,0.1962
1303.0,0.1701
1304.0,0.1431
1305.0,0.192
1306.0,0.1919
1307.0,0.1469
1308.0,0.1707
1309.0,0.1901
1310.0,0.144
1311.0,0.1632
1312.0,0.1585
1313.0,0.155
1314.0,0.138
1315.0,0.1358
1316.0,0.1602
1317.0,0.1516
1318.0,0.1656
1319.0,0.1269
1320.0,0.1235
1321.0,0.1447
1322.0,0.1458
1323.0,0.1076
1324.0,0.1246
1325.0,0.1578
1326.0,0.1341
1327.0,0.1276
1328.0,0.1093
1329.0,0.0802
1330.0,0.1054
1331.0,0.06135
1332.0,0.0641
1333.0,0.08972
1334.0,0.07719
1335.0,0.1071
1336.0,0.08351
1337.0,0.07327
1338.0,0.07927
1339.0,0.07925
1340.0,0.07771
1341.0,0.07441
1342.0,0.0783
1343.0,0.05018
1344.0,0.03025
1345.0,0.04371
1346.0,0.01999
1347.0,0.02002
1348.0,0.001078
1349.0,0.00408
1350.0,0.004397
1351.0,0.0009025
1352.0,0.0002013
1353.0,8.507e-06
1354.0,3.337e-05
1355.0,1.798e-07
1356.0,4.109e-06
1357.0,6.282e-06
1358.0,2.165e-07
1359.0,2.004e-08
1360.0,8.877e-08
1361.0,5.215e-11
1362.0,1.101e-13
1363.0,1.081e-07
1364.0,4.459e-08
1365.0,2.708e-14
1366.0,5.127e-07
1367.0,2.246e-07
1368.0,1.062e-16
1369.0,1.646e-08
1370.0,7.126e-09
1371.0,3.477e-10
1372.0,1.241e-07
1373.0,3.075e-06
1374.0,1.648e-05
1375.0,2.955e-05
1376.0,3.029e-05
1377.0,1.347e-05
1378.0,0.0001393
1379.0,5.647e-06
1380.0,7.422e-06
1381.0,1.796e-07
1382.0,1.077e-07
1383.0,1.453e-09
1384.0,1.762e-08
1385.0,1.186e-07
1386.0,8.746e-08
1387.0,1.556e-05
1388.0,3.12e-07
1389.0,6.227e-05
1390.0,5.327e-05
1391.0,3.464e-05
1392.0,2.167e-06
1393.0,1.24e-05
1394.0,5.05e-06
1395.0,3.192e-08
1396.0,8.213e-11
1397.0,4.671e-06
1398.0,0.0001537
1399.0,9.815e-05
1400.0,2.983e-11
1401.0,1.573e-10
1402.0,0.0003364
1403.0,0.0004061
1404.0,0.0001215
1405.0,1.389e-08
1406.0,0.0002952
1407.0,2.77e-05
1408.0,0.0002446
1409.0,7.301e-05
1410.0,6.366e-05
1411.0,0.0003601
1412.0,0.0005142
1413.0,0.006246
1414.0,5.104e-05
1415.0,2.321e-05
1416.0,0.01148
1417.0,0.003089
1418.0,0.003428
1419.0,0.000517
1420.0,0.002086
1421.0,0.002278
1422.0,0.01507
1423.0,0.002825
1424.0,0.005408
1425.0,0.007753
1426.0,0.009285
1427.0,0.01816
1428.0,0.0009952
1429.0,0.01302
1430.0,0.02365
1431.0,0.02636
1432.0,0.0007764
1433.0,0.01626
1434.0,0.008023
1435.0,0.007184
1436.0,0.01514
1437.0,0.01164
1438.0,0.004565
1439.0,0.02115
