interpolation:linear
wavelength,value
280.0,4.9899999999999996e-23
280.5,1.679e-21
281.0,9.095e-21
281.5,2.958e-19
282.0,4.949e-19
282.5,1.15e-18
283.0,3.544e-18
283.5,5.752e-18
284.0,9.413e-17
284.5,2.762e-16
285.0,7.058e-16
285.5,2.962e-15
286.0,1.16e-14
286.5,5.017e-14
287.0,1.419e-13
287.5,5.41e-13
288.0,1.731e-12
288.5,4.935e-12
289.0,1.273e-11
289.5,3.773e-11
290.0,1.041e-10
290.5,2.121e-10
291.0,4.558e-10
291.5,1.313e-09
292.0,2.691e-09
292.5,3.742e-09
293.0,7.944e-09
293.5,1.909e-08
294.0,2.976e-08
294.5,3.656e-08
295.0,6.146e-08
295.5,1.041e-07
296.0,1.951e-07
296.5,2.645e-07
297.0,3.481e-07
297.5,8.937e-07
298.0,1.352e-06
298.5,1.315e-06
299.0,2.799e-06
299.5,4.352e-06
300.0,4.601e-06
300.5,6.387e-06
301.0,1.075e-05
301.5,1.598e-05
302.0,1.316e-05
302.5,2.518e-05
303.0,4.379e-05
303.5,5.452e-05
304.0,5.201e-05
304.5,8.115e-05
305.0,0.000132
305.5,0.0001588
306.0,0.0001566
306.5,0.0002016
307.0,0.0003236
307.5,0.0004661
308.0,0.0004986
308.5,0.0006135
309.0,0.0006763
309.5,0.0009453
310.0,0.001042
310.5,0.001767
311.0,0.002392
311.5,0.002386
312.0,0.002814
312.5,0.003822
313.0,0.00439
313.5,0.004039
314.0,0.005764
314.5,0.006097
315.0,0.008266
315.5,0.006341
316.0,0.006393
316.5,0.0104
317.0,0.01287
317.5,0.01292
318.0,0.01097
318.5,0.01604
319.0,0.02067
319.5,0.01474
320.0,0.01745
320.5,0.02582
321.0,0.02675
321.5,0.02603
322.0,0.02357
322.5,0.02067
323.0,0.02288
323.5,0.03292
324.0,0.03917
324.5,0.03781
325.0,0.02929
325.5,0.04105
326.0,0.05475
326.5,0.05837
327.0,0.05683
327.5,0.05327
328.0,0.04353
328.5,0.05072
329.0,0.06576
329.5,0.07645
330.0,0.07562
330.5,0.0569
331.0,0.05675
331.5,0.06039
332.0,0.06967
332.5,0.07099
333.0,0.06957
333.5,0.05998
334.0,0.06095
334.5,0.07431
335.0,0.07208
335.5,0.08549
336.0,0.05915
336.5,0.06715
337.0,0.05384
337.5,0.06639
338.0,0.06783
338.5,0.07996
339.0,0.07939
339.5,0.07624
340.0,0.08783
340.5,0.07954
341.0,0.07891
341.5,0.07287
342.0,0.08724
342.5,0.08178
343.0,0.08963
343.5,0.0842
344.0,0.06117
344.5,0.06262
345.0,0.08344
345.5,0.08547
346.0,0.0728
346.5,0.08257
347.0,0.08839
347.5,0.07142
348.0,0.08175
348.5,0.08192
349.0,0.07611
349.5,0.07536
350.0,0.09329
350.5,0.09843
351.0,0.08778
351.5,0.08494
352.0,0.09155
352.5,0.07165
353.0,0.09043
353.5,0.09684
354.0,0.1006
354.5,0.1021
355.0,0.1017
355.5,0.092
356.0,0.09636
356.5,0.08231
357.0,0.06801
357.5,0.08331
358.0,0.06608
358.5,0.0565
359.0,0.07901
359.5,0.1006
360.0,0.1067
360.5,0.08538
361.0,0.07793
361.5,0.08986
362.0,0.07782
362.5,0.1078
363.0,0.09694
363.5,0.08937
364.0,0.1094
364.5,0.09355
365.0,0.09533
365.5,0.1197
366.0,0.127
366.5,0.1194
367.0,0.1164
367.5,0.1209
368.0,0.1058
368.5,0.1069
369.0,0.1155
369.5,0.1232
370.0,0.1315
370.5,0.1021
371.0,0.1092
371.5,0.1367
372.0,0.09079
372.5,0.109
373.0,0.1109
373.5,0.07224
374.0,0.105
374.5,0.08707
375.0,0.0847
375.5,0.1265
376.0,0.105
376.5,0.1088
377.0,0.1153
377.5,0.135
378.0,0.1465
378.5,0.1385
379.0,0.1144
379.5,0.1045
380.0,0.1087
380.5,0.1318
381.0,0.1322
381.5,0.105
382.0,0.09333
382.5,0.07966
383.0,0.07384
383.5,0.07119
384.0,0.0786
384.5,0.1157
385.0,0.1149
385.5,0.1071
386.0,0.0918
386.5,0.1207
387.0,0.1004
387.5,0.1128
388.0,0.1043
388.5,0.1032
389.0,0.1115
389.5,0.1352
390.0,0.1358
390.5,0.1251
391.0,0.1474
391.5,0.1504
392.0,0.1268
392.5,0.1136
393.0,0.06331
393.5,0.04607
394.0,0.09383
394.5,0.1194
395.0,0.1458
395.5,0.1482
396.0,0.1286
396.5,0.07531
397.0,0.05658
397.5,0.1152
398.0,0.1614
398.5,0.1669
399.0,0.1811
399.5,0.1806
400.0,0.1876
401.0,0.1878
402.0,0.1986
403.0,0.1891
404.0,0.1865
405.0,0.1868
406.0,0.1842
407.0,0.1816
408.0,0.1889
409.0,0.2025
410.0,0.1773
411.0,0.1925
412.0,0.2073
413.0,0.2024
414.0,0.2053
415.0,0.2063
416.0,0.2104
417.0,0.2055
418.0,0.202
419.0,0.2051
420.0,0.2045
421.0,0.2144
422.0,0.2041
423.0,0.1996
424.0,0.2113
425.0,0.2114
426.0,0.2065
427.0,0.203
428.0,0.198
429.0,0.1881
430.0,0.165
431.0,0.1636
432.0,0.2117
433.0,0.2132
434.0,0.1982
435.0,0.2072
436.0,0.2341
437.0,0.2316
438.0,0.2112
439.0,0.2181
440.0,0.2254
441.0,0.2341
442.0,0.2513
443.0,0.2447
444.0,0.2506
445.0,0.2454
446.0,0.235
447.0,0.2549
448.0,0.2586
449.0,0.2605
450.0,0.2683
451.0,0.2785
452.0,0.2688
453.0,0.2533
454.0,0.2651
455.0,0.2668
456.0,0.2734
457.0,0.2781
458.0,0.2683
459.0,0.2671
460.0,0.2676
461.0,0.274
462.0,0.2767
463.0,0.275
464.0,0.2714
465.0,0.269
466.0,0.2723
467.0,0.2671
468.0,0.2704
469.0,0.2718
470.0,0.2631
471.0,0.263
472.0,0.2772
473.0,0.2737
474.0,0.2736
475.0,0.2754
476.0,0.2662
477.0,0.2663
478.0,0.2739
479.0,0.2726
480.0,0.2736
481.0,0.2794
482.0,0.2817
483.0,0.2793
484.0,0.2742
485.0,0.2619
486.0,0.2297
487.0,0.2414
488.0,0.2649
489.0,0.2655
490.0,0.2798
491.0,0.2754
492.0,0.2602
493.0,0.269
494.0,0.2718
495.0,0.2744
496.0,0.2762
497.0,0.2804
498.0,0.2672
499.0,0.2702
500.0,0.2618
501.0,0.2563
502.0,0.2515
503.0,0.2606
504.0,0.2508
505.0,0.2624
506.0,0.2709
507.0,0.258
508.0,0.2511
509.0,0.2591
510.0,0.2585
511.0,0.2661
512.0,0.2694
513.0,0.2551
514.0,0.2536
515.0,0.2511
516.0,0.2503
517.0,0.2226
518.0,0.2339
519.0,0.2453
520.0,0.254
521.0,0.2563
522.0,0.2562
523.0,0.2513
524.0,0.2596
525.0,0.2616
526.0,0.2496
527.0,0.2345
528.0,0.2474
529.0,0.2602
530.0,0.2561
531.0,0.2595
532.0,0.2504
533.0,0.2431
534.0,0.2505
535.0,0.2564
536.0,0.2592
537.0,0.2494
538.0,0.254
539.0,0.2518
540.0,0.2412
541.0,0.2416
542.0,0.2487
543.0,0.2468
544.0,0.2502
545.0,0.2496
546.0,0.2499
547.0,0.2505
548.0,0.2479
549.0,0.2489
550.0,0.2519
551.0,0.249
552.0,0.2508
553.0,0.2461
554.0,0.2519
555.0,0.2521
556.0,0.2487
557.0,0.2406
558.0,0.2382
559.0,0.2331
560.0,0.2356
561.0,0.2381
562.0,0.2357
563.0,0.2413
564.0,0.2341
565.0,0.2315
566.0,0.2276
567.0,0.2311
568.0,0.2272
569.0,0.2184
570.0,0.2187
571.0,0.2182
572.0,0.2211
573.0,0.223
574.0,0.2217
575.0,0.2167
576.0,0.2148
577.0,0.2175
578.0,0.2152
579.0,0.2178
580.0,0.2245
581.0,0.2277
582.0,0.2338
583.0,0.2358
584.0,0.2389
585.0,0.2336
586.0,0.2289
587.0,0.2329
588.0,0.223
589.0,0.1894
590.0,0.1986
591.0,0.2152
592.0,0.2095
593.0,0.2164
594.0,0.2134
595.0,0.2047
596.0,0.2198
597.0,0.2154
598.0,0.217
599.0,0.2181
600.0,0.2201
601.0,0.2196
602.0,0.2184
603.0,0.2228
604.0,0.2269
605.0,0.2261
606.0,0.226
607.0,0.229
608.0,0.2273
609.0,0.2284
610.0,0.2275
611.0,0.2293
612.0,0.2291
613.0,0.2267
614.0,0.2243
615.0,0.2299
616.0,0.2229
617.0,0.2229
618.0,0.2319
619.0,0.2298
620.0,0.2313
621.0,0.231
622.0,0.228
623.0,0.2242
624.0,0.2208
625.0,0.2201
626.0,0.2231
627.0,0.2238
628.0,0.1887
629.0,0.2112
630.0,0.2056
631.0,0.2172
632.0,0.216
633.0,0.2255
634.0,0.2257
635.0,0.2304
636.0,0.2287
637.0,0.2335
638.0,0.2374
639.0,0.2357
640.0,0.2345
641.0,0.2351
642.0,0.235
643.0,0.2383
644.0,0.2385
645.0,0.2384
646.0,0.2303
647.0,0.2216
648.0,0.2227
649.0,0.2171
650.0,0.2259
651.0,0.2369
652.0,0.2201
653.0,0.2345
654.0,0.2323
655.0,0.2201
656.0,0.1976
657.0,0.2035
658.0,0.2306
659.0,0.2332
660.0,0.2349
661.0,0.2371
662.0,0.2365
663.0,0.2322
664.0,0.2369
665.0,0.2387
666.0,0.2394
667.0,0.24
668.0,0.241
669.0,0.2453
670.0,0.2446
671.0,0.245
672.0,0.2433
673.0,0.2473
674.0,0.2468
675.0,0.2449
676.0,0.247
677.0,0.2449
678.0,0.2459
679.0,0.2422
680.0,0.2443
681.0,0.2429
682.0,0.2426
683.0,0.2423
684.0,0.241
685.0,0.2435
686.0,0.2416
687.0,0.08278
688.0,0.1256
689.0,0.1272
690.0,0.1453
691.0,0.1681
692.0,0.1877
693.0,0.1859
694.0,0.1878
695.0,0.2065
696.0,0.2077
697.0,0.2324
698.0,0.2286
699.0,0.2145
700.0,0.2114
701.0,0.2053
702.0,0.2102
703.0,0.2121
704.0,0.2241
705.0,0.2242
706.0,0.2258
707.0,0.2269
708.0,0.2271
709.0,0.2313
710.0,0.2291
711.0,0.2302
712.0,0.2315
713.0,0.2272
714.0,0.2288
715.0,0.2178
716.0,0.2171
717.0,0.1582
718.0,0.1438
719.0,0.1295
720.0,0.1322
721.0,0.162
722.0,0.2033
723.0,0.1807
724.0,0.1517
725.0,0.1464
726.0,0.1538
727.0,0.1634
728.0,0.1448
729.0,0.1602
730.0,0.1661
731.0,0.1576
732.0,0.1799
733.0,0.1998
734.0,0.2082
735.0,0.2019
736.0,0.2007
737.0,0.2019
738.0,0.2139
739.0,0.2102
740.0,0.2182
741.0,0.2175
742.0,0.2195
743.0,0.2256
744.0,0.226
745.0,0.2271
746.0,0.2281
747.0,0.2288
748.0,0.2285
749.0,0.226
750.0,0.2259
751.0,0.2237
752.0,0.2248
753.0,0.2261
754.0,0.2266
755.0,0.2252
756.0,0.2253
757.0,0.2256
758.0,0.2225
759.0,0.2117
760.0,0.003745
761.0,0.001545
762.0,0.03795
763.0,0.007844
764.0,0.01876
765.0,0.03776
766.0,0.06788
767.0,0.1187
768.0,0.1735
769.0,0.1867
770.0,0.2045
771.0,0.2115
772.0,0.2136
773.0,0.2155
774.0,0.2149
775.0,0.2135
776.0,0.2163
777.0,0.2135
778.0,0.2121
779.0,0.2123
780.0,0.2113
781.0,0.2116
782.0,0.213
783.0,0.2094
784.0,0.2107
785.0,0.2087
786.0,0.2106
787.0,0.2022
788.0,0.1976
789.0,0.1977
790.0,0.1868
791.0,0.1942
792.0,0.1938
793.0,0.1901
794.0,0.199
795.0,0.2008
796.0,0.1862
797.0,0.1855
798.0,0.1995
799.0,0.1968
800.0,0.1914
801.0,0.1886
802.0,0.1877
803.0,0.1851
804.0,0.1865
805.0,0.1884
806.0,0.1982
807.0,0.1949
808.0,0.1953
809.0,0.1882
810.0,0.1849
811.0,0.1821
812.0,0.1697
813.0,0.1649
814.0,0.132
815.0,0.1326
816.0,0.1211
817.0,0.1235
818.0,0.116
819.0,0.1404
820.0,0.1289
821.0,0.1686
822.0,0.1608
823.0,0.08425
824.0,0.1489
825.0,0.1662
826.0,0.1535
827.0,0.1683
828.0,0.1251
829.0,0.1539
830.0,0.151
831.0,0.1512
832.0,0.1434
833.0,0.1602
834.0,0.1499
835.0,0.1783
836.0,0.1605
837.0,0.1785
838.0,0.1682
839.0,0.1755
840.0,0.1807
841.0,0.176
842.0,0.1797
843.0,0.1832
844.0,0.1788
845.0,0.1872
846.0,0.1871
847.0,0.1846
848.0,0.1819
849.0,0.1767
850.0,0.1695
851.0,0.1778
852.0,0.1774
853.0,0.172
854.0,0.1474
855.0,0.1635
856.0,0.178
857.0,0.1831
858.0,0.1812
859.0,0.1821
860.0,0.1829
861.0,0.1818
862.0,0.1849
863.0,0.1893
864.0,0.1799
865.0,0.1785
866.0,0.1605
867.0,0.1675
868.0,0.1824
869.0,0.1787
870.0,0.1838
871.0,0.1813
872.0,0.1807
873.0,0.1804
874.0,0.1783
875.0,0.1746
876.0,0.1763
877.0,0.1782
878.0,0.1799
879.0,0.1772
880.0,0.1734
881.0,0.17
882.0,0.1734
883.0,0.1748
884.0,0.1736
885.0,0.1749
886.0,0.1641
887.0,0.1679
888.0,0.1693
889.0,0.1734
890.0,0.169
891.0,0.1702
892.0,0.1617
893.0,0.1536
894.0,0.1407
895.0,0.1243
896.0,0.115
897.0,0.08988
898.0,0.1018
899.0,0.06803
900.0,0.1101
901.0,0.07137
902.0,0.09537
903.0,0.09179
904.0,0.139
905.0,0.1316
906.0,0.1203
907.0,0.08214
908.0,0.08757
909.0,0.09964
910.0,0.07817
911.0,0.09246
912.0,0.09565
913.0,0.07881
914.0,0.08047
915.0,0.08564
916.0,0.07157
917.0,0.1006
918.0,0.07228
919.0,0.1062
920.0,0.1168
921.0,0.12
922.0,0.09973
923.0,0.1171
924.0,0.09908
925.0,0.09762
926.0,0.09685
927.0,0.1156
928.0,0.06371
929.0,0.05323
930.0,0.03363
931.0,0.03111
932.0,0.01617
933.0,0.01104
934.0,0.002819
935.0,0.01271
936.0,0.005427
937.0,0.005525
938.0,0.007544
939.0,0.02991
940.0,0.04155
941.0,0.02489
942.0,0.03151
943.0,0.01632
944.0,0.02184
945.0,0.02712
946.0,0.008391
947.0,0.02564
948.0,0.01841
949.0,0.04103
950.0,0.004723
951.0,0.0404
952.0,0.01498
953.0,0.02368
954.0,0.03438
955.0,0.02471
956.0,0.03192
957.0,0.0149
958.0,0.05004
959.0,0.03161
960.0,0.03566
961.0,0.04655
962.0,0.04405
963.0,0.05705
964.0,0.05063
965.0,0.05581
966.0,0.05607
967.0,0.05457
968.0,0.1015
969.0,0.1005
970.0,0.09055
971.0,0.1166
972.0,0.1081
973.0,0.08136
974.0,0.07695
975.0,0.08295
976.0,0.07146
977.0,0.09774
978.0,0.08594
979.0,0.09308
980.0,0.08624
981.0,0.1161
982.0,0.1064
983.0,0.09968
984.0,0.1264
985.0,0.1053
986.0,0.133
987.0,0.1267
988.0,0.127
989.0,0.1357
990.0,0.1258
991.0,0.1355
992.0,0.1368
993.0,0.1297
994.0,0.1374
995.0,0.138
996.0,0.1366
997.0,0.1372
998.0,0.1362
999.0,0.136
1000.0,0.1337
1001.0,0.1368
1002.0,0.1277
1003.0,0.1341
1004.0,0.1294
1005.0,0.1266
1006.0,0.1307
1007.0,0.1338
1008.0,0.1322
1009.0,0.1305
1010.0,0.1294
1011.0,0.1333
1012.0,0.1312
1013.0,0.1333
1014.0,0.1323
1015.0,0.1313
1016.0,0.1306
1017.0,0.1307
1018.0,0.1309
1019.0,0.1261
1020.0,0.1299
1021.0,0.1301
1022.0,0.1283
1023.0,0.1296
1024.0,0.1259
1025.0,0.1302
1026.0,0.129
1027.0,0.1289
1028.0,0.1285
1029.0,0.1267
1030.0,0.1283
1031.0,0.1275
1032.0,0.1274
1033.0,0.1254
1034.0,0.1255
1035.0,0.1259
1036.0,0.1263
1037.0,0.1243
1038.0,0.1248
1039.0,0.1246
1040.0,0.124
1041.0,0.1243
1042.0,0.1234
1043.0,0.1229
1044.0,0.1232
1045.0,0.1214
1046.0,0.12
1047.0,0.1209
1048.0,0.1214
1049.0,0.1208
1050.0,0.12
1051.0,0.1196
1052.0,0.1189
1053.0,0.1177
1054.0,0.1177
1055.0,0.1174
1056.0,0.1166
1057.0,0.116
1058.0,0.1129
1059.0,0.1126
1060.0,0.1123
1061.0,0.112
1062.0,0.1122
1063.0,0.1108
1064.0,0.1123
1065.0,0.1107
1066.0,0.1091
1067.0,0.1103
1068.0,0.1073
1069.0,0.1045
1070.0,0.1076
1071.0,0.111
1072.0,0.1084
1073.0,0.1071
1074.0,0.1119
1075.0,0.1021
1076.0,0.1116
1077.0,0.1073
1078.0,0.1039
1079.0,0.1107
1080.0,0.1054
1081.0,0.09978
1082.0,0.1052
1083.0,0.1068
1084.0,0.09863
1085.0,0.106
1086.0,0.09103
1087.0,0.09767
1088.0,0.106
1089.0,0.09779
1090.0,0.09389
1091.0,0.1044
1092.0,0.1048
1093.0,0.07783
1094.0,0.09447
1095.0,0.08098
1096.0,0.07483
1097.0,0.1025
1098.0,0.07175
1099.0,0.0762
1100.0,0.06714
1101.0,0.06974
1102.0,0.06356
1103.0,0.06082
1104.0,0.06137
1105.0,0.07332
1106.0,0.04138
1107.0,0.06721
1108.0,0.04807
1109.0,0.04888
1110.0,0.06382
1111.0,0.0314
1112.0,0.04895
1113.0,0.02107
1114.0,0.02357
1115.0,0.01847
1116.0,0.01069
1117.0,0.001608
1118.0,0.01219
1119.0,0.003489
1120.0,0.003966
1121.0,0.006219
1122.0,0.001215
1123.0,0.003629
1124.0,0.003034
1125.0,0.004566
1126.0,0.0004584
1127.0,0.005261
1128.0,0.001619
1129.0,0.001799
1130.0,0.001143
1131.0,0.01632
1132.0,0.0113
1133.0,0.004133
1134.0,0.0003463
1135.0,0.0001684
1136.0,0.002651
1137.0,0.01483
1138.0,0.009498
1139.0,0.02351
1140.0,0.01586
1141.0,0.009185
1142.0,0.01196
1143.0,0.02154
1144.0,0.004025
1145.0,0.00388
1146.0,0.004169
1147.0,0.0004918
1148.0,0.01757
1149.0,0.01165
1150.0,0.005261
1151.0,0.009488
1152.0,0.01445
1153.0,0.01659
1154.0,0.004315
1155.0,0.02452
1156.0,0.01997
1157.0,0.02794
1158.0,0.02748
1159.0,0.03132
1160.0,0.02604
1161.0,0.03871
1162.0,0.03799
1163.0,0.06559
1164.0,0.05128
1165.0,0.04362
1166.0,0.04763
1167.0,0.05419
1168.0,0.05413
1169.0,0.05641
1170.0,0.06594
1171.0,0.0643
1172.0,0.06896
1173.0,0.06588
1174.0,0.03762
1175.0,0.0678
1176.0,0.08152
1177.0,0.07337
1178.0,0.04746
1179.0,0.08197
1180.0,0.06571
1181.0,0.06799
1182.0,0.03778
1183.0,0.06835
1184.0,0.06075
1185.0,0.05569
1186.0,0.07611
1187.0,0.06907
1188.0,0.03646
1189.0,0.06394
1190.0,0.07542
1191.0,0.06459
1192.0,0.07719
1193.0,0.07148
1194.0,0.07535
1195.0,0.06651
1196.0,0.06165
1197.0,0.07695
1198.0,0.06898
1199.0,0.0493
1200.0,0.07078
1201.0,0.06449
1202.0,0.06777
1203.0,0.06454
1204.0,0.05309
1205.0,0.07165
1206.0,0.08366
1207.0,0.06599
1208.0,0.06785
1209.0,0.06938
1210.0,0.07464
1211.0,0.06803
1212.0,0.06121
1213.0,0.07785
1214.0,0.06461
1215.0,0.06314
1216.0,0.07854
1217.0,0.07468
1218.0,0.0777
1219.0,0.07541
1220.0,0.07798
1221.0,0.08033
1222.0,0.07733
1223.0,0.0757
1224.0,0.07286
1225.0,0.07914
1226.0,0.08146
1227.0,0.06957
1228.0,0.0828
1229.0,0.08153
1230.0,0.07909
1231.0,0.08466
1232.0,0.08402
1233.0,0.07668
1234.0,0.08573
1235.0,0.08437
1236.0,0.08563
1237.0,0.08279
1238.0,0.08536
1239.0,0.08422
1240.0,0.08482
1241.0,0.08309
1242.0,0.08408
1243.0,0.08348
1244.0,0.08364
1245.0,0.08425
1246.0,0.08382
1247.0,0.0831
1248.0,0.08236
1249.0,0.08323
1250.0,0.0823
1251.0,0.08039
1252.0,0.08149
1253.0,0.07888
1254.0,0.07667
1255.0,0.0809
1256.0,0.07507
1257.0,0.07394
1258.0,0.07813
1259.0,0.06996
1260.0,0.07097
1261.0,0.06077
1262.0,0.05588
1263.0,0.05584
1264.0,0.04514
1265.0,0.05559
1266.0,0.04959
1267.0,0.05316
1268.0,0.04621
1269.0,0.01156
1270.0,0.05189
1271.0,0.0615
1272.0,0.06219
1273.0,0.06083
1274.0,0.06201
1275.0,0.06398
1276.0,0.06587
1277.0,0.06808
1278.0,0.07178
1279.0,0.07124
1280.0,0.07033
1281.0,0.06834
1282.0,0.06787
1283.0,0.07267
1284.0,0.07408
1285.0,0.07493
1286.0,0.07702
1287.0,0.07381
1288.0,0.07453
1289.0,0.06817
1290.0,0.07399
1291.0,0.07578
1292.0,0.06439
1293.0,0.0728
1294.0,0.07203
1295.0,0.06907
1296.0,0.06213
1297.0,0.05619
1298.0,0.06638
1299.0,0.07341
1300.0,0.05268
1301.0,0.05556
1302.0,0.06659
1303.0,0.05263
1304.0,0.03716
1305.0,0.06468
1306.0,0.06336
1307.0,0.04065
1308.0,0.05404
1309.0,0.06109
1310.0,0.03889
1311.0,0.04986
1312.0,0.04788
1313.0,0.04424
1314.0,0.03649
1315.0,0.03465
1316.0,0.04752
1317.0,0.04357
1318.0,0.05096
1319.0,0.03066
1320.0,0.03103
1321.0,0.03969
1322.0,0.03821
1323.0,0.02186
1324.0,0.03056
1325.0,0.04519
1326.0,0.03453
1327.0,0.03152
1328.0,0.0245
1329.0,0.01309
1330.0,0.0202
1331.0,0.007461
1332.0,0.008627
1333.0,0.0129
1334.0,0.01461
1335.0,0.02078
1336.0,0.01337
1337.0,0.01162
1338.0,0.01213
1339.0,0.01248
1340.0,0.01358
1341.0,0.009764
1342.0,0.01084
1343.0,0.003688
1344.0,0.002508
1345.0,0.003101
1346.0,0.0005362
1347.0,0.0004279
1348.0,6.9e-06
1349.0,2.897e-05
1350.0,3.303e-05
1351.0,4.151e-06
1352.0,9.605e-07
1353.0,4.87e-08
1354.0,1.683e-07
1355.0,1.346e-09
1356.0,2.359e-08
1357.0,3.583e-08
1358.0,1.581e-09
1359.0,1.991e-10
1360.0,7.196e-10
1361.0,8.05e-13
1362.0,2.202e-15
1363.0,9.676e-10
1364.0,3.995e-10
1365.0,7.688e-16
1366.0,4.193e-09
1367.0,1.712e-09
1368.0,5.936e-18
1369.0,1.472e-10
1370.0,7.249e-11
1371.0,4.109e-12
1372.0,9.283e-10
1373.0,1.871e-08
1374.0,8.683e-08
1375.0,1.574e-07
1376.0,1.422e-07
1377.0,6.488e-08
1378.0,6.326e-07
1379.0,2.717e-08
1380.0,3.875e-08
1381.0,1.009e-09
1382.0,8.136e-10
1383.0,1.216e-11
1384.0,1.595e-10
1385.0,7.627e-10
1386.0,7.173e-10
1387.0,8.677e-08
1388.0,1.709e-09
1389.0,2.935e-07
1390.0,2.517e-07
1391.0,1.675e-07
1392.0,1.087e-08
1393.0,5.774e-08
1394.0,2.959e-08
1395.0,2.169e-10
1396.0,1.048e-12
1397.0,2.267e-08
1398.0,6.701e-07
1399.0,4.243e-07
1400.0,4.481e-13
1401.0,1.859e-12
1402.0,1.393e-06
1403.0,1.581e-06
1404.0,4.636e-07
1405.0,1.027e-10
1406.0,1.163e-06
1407.0,1.158e-07
1408.0,9.501e-07
1409.0,3.131e-07
