interpolation:linear
wavelength,value
280.0,1.0419999999999999e-22
280.5,3.47e-21
281.0,1.8710000000000003e-20
281.5,4.663e-19
282.0,5.362e-19
282.5,1.303e-18
283.0,4.09e-18
283.5,6.659e-18
284.0,1.099e-16
284.5,3.219e-16
285.0,5.759e-16
285.5,2.78e-15
286.0,1.116e-14
286.5,4.996e-14
287.0,1.433e-13
287.5,5.53e-13
288.0,1.953e-12
288.5,5.697e-12
289.0,1.486e-11
289.5,4.431e-11
290.0,1.223e-10
290.5,2.49e-10
291.0,5.341e-10
291.5,1.534e-09
292.0,3.102e-09
292.5,4.332e-09
293.0,9.243e-09
293.5,2.235e-08
294.0,3.488e-08
294.5,4.608e-08
295.0,7.779e-08
295.5,1.31e-07
296.0,2.499e-07
296.5,3.451e-07
297.0,4.615e-07
297.5,1.215e-06
298.0,1.88e-06
298.5,1.862e-06
299.0,4.039e-06
299.5,6.494e-06
300.0,6.999e-06
300.5,9.911e-06
301.0,1.724e-05
301.5,2.638e-05
302.0,2.206e-05
302.5,4.302e-05
303.0,7.757e-05
303.5,9.879e-05
304.0,9.538e-05
304.5,0.0001534
305.0,0.0002596
305.5,0.0003195
306.0,0.000318
306.5,0.0004153
307.0,0.0006863
307.5,0.001014
308.0,0.00109
308.5,0.001357
309.0,0.001599
309.5,0.002149
310.0,0.002323
310.5,0.003902
311.0,0.005199
311.5,0.005149
312.0,0.005858
312.5,0.007762
313.0,0.008801
313.5,0.008198
314.0,0.01135
314.5,0.01152
315.0,0.0155
315.5,0.01214
316.0,0.01183
316.5,0.01865
317.0,0.02311
317.5,0.02341
318.0,0.01947
318.5,0.02733
319.0,0.03449
319.5,0.02545
320.0,0.03029
320.5,0.04295
321.0,0.0428
321.5,0.04149
322.0,0.03919
322.5,0.0343
323.0,0.03695
323.5,0.04966
324.0,0.05874
324.5,0.05764
325.0,0.04713
325.5,0.06459
326.0,0.08181
326.5,0.08555
327.0,0.08392
327.5,0.07942
328.0,0.06674
328.5,0.07523
329.0,0.0952
329.5,0.1099
330.0,0.1094
330.5,0.0839
331.0,0.08426
331.5,0.08841
332.0,0.1
332.5,0.101
333.0,0.09953
333.5,0.08709
334.0,0.08875
334.5,0.1064
335.0,0.1023
335.5,0.1205
336.0,0.08337
336.5,0.09582
337.0,0.07737
337.5,0.0957
338.0,0.09646
338.5,0.1127
339.0,0.1118
339.5,0.1075
340.0,0.1249
340.5,0.113
341.0,0.1112
341.5,0.1025
342.0,0.1227
342.5,0.115
343.0,0.1262
343.5,0.1187
344.0,0.08697
344.5,0.08845
345.0,0.1176
345.5,0.1204
346.0,0.1025
346.5,0.1162
347.0,0.1246
347.5,0.1007
348.0,0.1152
348.5,0.1153
349.0,0.1071
349.5,0.1061
350.0,0.1314
350.5,0.1386
351.0,0.1237
351.5,0.1199
352.0,0.1292
352.5,0.101
353.0,0.1275
353.5,0.1365
354.0,0.1418
354.5,0.1439
355.0,0.1434
355.5,0.1297
356.0,0.1359
356.5,0.1161
357.0,0.09592
357.5,0.1175
358.0,0.09319
358.5,0.07968
359.0,0.1115
359.5,0.142
360.0,0.1506
360.5,0.1205
361.0,0.11
361.5,0.1268
362.0,0.1098
362.5,0.1522
363.0,0.1369
363.5,0.1262
364.0,0.1545
364.5,0.1321
365.0,0.1346
365.5,0.1691
366.0,0.1794
366.5,0.1687
367.0,0.1645
367.5,0.1708
368.0,0.1496
368.5,0.151
369.0,0.1633
369.5,0.1742
370.0,0.1858
370.5,0.1444
371.0,0.1544
371.5,0.1933
372.0,0.1284
372.5,0.154
373.0,0.1568
373.5,0.1021
374.0,0.1485
374.5,0.1231
375.0,0.1198
375.5,0.1789
376.0,0.1484
376.5,0.1539
377.0,0.1631
377.5,0.191
378.0,0.2071
378.5,0.1959
379.0,0.1617
379.5,0.1478
380.0,0.1538
380.5,0.1864
381.0,0.187
381.5,0.1485
382.0,0.132
382.5,0.1127
383.0,0.1044
383.5,0.1007
384.0,0.1112
384.5,0.1637
385.0,0.1624
385.5,0.1514
386.0,0.1298
386.5,0.1707
387.0,0.142
387.5,0.1596
388.0,0.1475
388.5,0.1459
389.0,0.1576
389.5,0.1911
390.0,0.192
390.5,0.1768
391.0,0.2083
391.5,0.2126
392.0,0.1792
392.5,0.1606
393.0,0.08948
393.5,0.06511
394.0,0.1326
394.5,0.1687
395.0,0.2061
395.5,0.2094
396.0,0.1817
396.5,0.1064
397.0,0.07992
397.5,0.1627
398.0,0.2279
398.5,0.2357
399.0,0.2556
399.5,0.255
400.0,0.2649
401.0,0.2662
402.0,0.2814
403.0,0.2679
404.0,0.2642
405.0,0.2645
406.0,0.2608
407.0,0.2571
408.0,0.2673
409.0,0.2866
410.0,0.2509
411.0,0.2722
412.0,0.2931
413.0,0.2861
414.0,0.2901
415.0,0.2914
416.0,0.2971
417.0,0.2902
418.0,0.2852
419.0,0.2895
420.0,0.2886
421.0,0.3024
422.0,0.2878
423.0,0.2815
424.0,0.298
425.0,0.2979
426.0,0.2909
427.0,0.2858
428.0,0.2788
429.0,0.2647
430.0,0.232
431.0,0.2301
432.0,0.2976
433.0,0.2997
434.0,0.2785
435.0,0.2911
436.0,0.3287
437.0,0.325
438.0,0.2964
439.0,0.3061
440.0,0.3164
441.0,0.3284
442.0,0.3525
443.0,0.3432
444.0,0.3514
445.0,0.3439
446.0,0.3291
447.0,0.3567
448.0,0.362
449.0,0.3644
450.0,0.3751
451.0,0.3894
452.0,0.3757
453.0,0.3538
454.0,0.3701
455.0,0.3725
456.0,0.3817
457.0,0.3882
458.0,0.3746
459.0,0.3729
460.0,0.3737
461.0,0.3826
462.0,0.3862
463.0,0.3837
464.0,0.3784
465.0,0.3746
466.0,0.379
467.0,0.3719
468.0,0.3763
469.0,0.3784
470.0,0.3663
471.0,0.3661
472.0,0.3858
473.0,0.3809
474.0,0.3809
475.0,0.3835
476.0,0.3711
477.0,0.3715
478.0,0.3821
479.0,0.3803
480.0,0.3815
481.0,0.3894
482.0,0.3923
483.0,0.3886
484.0,0.3813
485.0,0.3639
486.0,0.3189
487.0,0.3348
488.0,0.3674
489.0,0.3683
490.0,0.388
491.0,0.3817
492.0,0.3607
493.0,0.3727
494.0,0.3766
495.0,0.38
496.0,0.3824
497.0,0.3883
498.0,0.3701
499.0,0.3744
500.0,0.3629
501.0,0.3556
502.0,0.3494
503.0,0.3624
504.0,0.3499
505.0,0.3651
506.0,0.3768
507.0,0.3588
508.0,0.3487
509.0,0.3593
510.0,0.3581
511.0,0.3685
512.0,0.3729
513.0,0.3531
514.0,0.3509
515.0,0.3475
516.0,0.3465
517.0,0.308
518.0,0.3238
519.0,0.3395
520.0,0.3517
521.0,0.355
522.0,0.3549
523.0,0.3483
524.0,0.3601
525.0,0.3634
526.0,0.3468
527.0,0.3261
528.0,0.3442
529.0,0.3623
530.0,0.3568
531.0,0.3617
532.0,0.3491
533.0,0.3389
534.0,0.3492
535.0,0.3573
536.0,0.361
537.0,0.3471
538.0,0.3535
539.0,0.3504
540.0,0.3358
541.0,0.3369
542.0,0.3469
543.0,0.3441
544.0,0.3492
545.0,0.3482
546.0,0.349
547.0,0.3495
548.0,0.3458
549.0,0.3471
550.0,0.3512
551.0,0.3471
552.0,0.3496
553.0,0.3431
554.0,0.3512
555.0,0.3517
556.0,0.347
557.0,0.3358
558.0,0.3327
559.0,0.3259
560.0,0.3296
561.0,0.3333
562.0,0.3303
563.0,0.3385
564.0,0.3286
565.0,0.3252
566.0,0.3199
567.0,0.3253
568.0,0.3205
569.0,0.3095
570.0,0.3098
571.0,0.3088
572.0,0.3139
573.0,0.3168
574.0,0.3152
575.0,0.3085
576.0,0.3058
577.0,0.3094
578.0,0.3058
579.0,0.3087
580.0,0.3171
581.0,0.3207
582.0,0.3286
583.0,0.3308
584.0,0.3346
585.0,0.327
586.0,0.3204
587.0,0.3264
588.0,0.3141
589.0,0.2701
590.0,0.283
591.0,0.3045
592.0,0.2977
593.0,0.3059
594.0,0.3023
595.0,0.2915
596.0,0.31
597.0,0.3047
598.0,0.3061
599.0,0.3073
600.0,0.3094
601.0,0.3082
602.0,0.3064
603.0,0.3122
604.0,0.3177
605.0,0.3165
606.0,0.3159
607.0,0.3199
608.0,0.3172
609.0,0.3184
610.0,0.3169
611.0,0.3191
612.0,0.3186
613.0,0.315
614.0,0.3114
615.0,0.3189
616.0,0.3089
617.0,0.3087
618.0,0.321
619.0,0.318
620.0,0.32
621.0,0.3198
622.0,0.3156
623.0,0.3104
624.0,0.3055
625.0,0.3048
626.0,0.3091
627.0,0.3108
628.0,0.2704
629.0,0.2965
630.0,0.2889
631.0,0.3022
632.0,0.3
633.0,0.3119
634.0,0.3112
635.0,0.3172
636.0,0.3143
637.0,0.3205
638.0,0.3251
639.0,0.3223
640.0,0.3202
641.0,0.3208
642.0,0.3202
643.0,0.3246
644.0,0.3245
645.0,0.3245
646.0,0.3145
647.0,0.3051
648.0,0.3059
649.0,0.299
650.0,0.3078
651.0,0.3224
652.0,0.302
653.0,0.3186
654.0,0.3156
655.0,0.3003
656.0,0.2687
657.0,0.2764
658.0,0.3121
659.0,0.3153
660.0,0.3172
661.0,0.3198
662.0,0.3192
663.0,0.3133
664.0,0.319
665.0,0.3208
666.0,0.3217
667.0,0.3222
668.0,0.3232
669.0,0.3287
670.0,0.3277
671.0,0.3281
672.0,0.3255
673.0,0.3308
674.0,0.33
675.0,0.3273
676.0,0.3299
677.0,0.3269
678.0,0.3281
679.0,0.3231
680.0,0.3259
681.0,0.3239
682.0,0.3235
683.0,0.323
684.0,0.3213
685.0,0.3245
686.0,0.3221
687.0,0.135
688.0,0.1899
689.0,0.1918
690.0,0.2135
691.0,0.2399
692.0,0.2616
693.0,0.2589
694.0,0.2592
695.0,0.2806
696.0,0.2817
697.0,0.3108
698.0,0.3057
699.0,0.2901
700.0,0.2861
701.0,0.2797
702.0,0.285
703.0,0.2866
704.0,0.3008
705.0,0.3011
706.0,0.3027
707.0,0.3038
708.0,0.3042
709.0,0.3082
710.0,0.3062
711.0,0.3071
712.0,0.3079
713.0,0.3031
714.0,0.3049
715.0,0.2917
716.0,0.291
717.0,0.2227
718.0,0.2027
719.0,0.1834
720.0,0.1889
721.0,0.2248
722.0,0.2752
723.0,0.2475
724.0,0.212
725.0,0.2053
726.0,0.2156
727.0,0.2261
728.0,0.2035
729.0,0.2212
730.0,0.2312
731.0,0.2196
732.0,0.2459
733.0,0.2699
734.0,0.2798
735.0,0.2721
736.0,0.2711
737.0,0.2724
738.0,0.285
739.0,0.2796
740.0,0.2893
741.0,0.2879
742.0,0.2898
743.0,0.2976
744.0,0.2978
745.0,0.2987
746.0,0.3001
747.0,0.3009
748.0,0.3004
749.0,0.2971
750.0,0.297
751.0,0.294
752.0,0.2954
753.0,0.297
754.0,0.2977
755.0,0.296
756.0,0.296
757.0,0.2964
758.0,0.2925
759.0,0.2809
760.0,0.007534
761.0,0.002562
762.0,0.06908
763.0,0.01662
764.0,0.03767
765.0,0.06886
766.0,0.1112
767.0,0.176
768.0,0.2386
769.0,0.2525
770.0,0.2714
771.0,0.2784
772.0,0.2805
773.0,0.2828
774.0,0.2818
775.0,0.2799
776.0,0.2834
777.0,0.2797
778.0,0.278
779.0,0.2782
780.0,0.2768
781.0,0.2772
782.0,0.279
783.0,0.2743
784.0,0.2758
785.0,0.2733
786.0,0.276
787.0,0.2669
788.0,0.2617
789.0,0.2616
790.0,0.2493
791.0,0.2569
792.0,0.2559
793.0,0.2512
794.0,0.2609
795.0,0.2638
796.0,0.248
797.0,0.2475
798.0,0.2625
799.0,0.2595
800.0,0.2532
801.0,0.2505
802.0,0.2495
803.0,0.2466
804.0,0.2479
805.0,0.2494
806.0,0.2605
807.0,0.2565
808.0,0.257
809.0,0.2491
810.0,0.2453
811.0,0.2421
812.0,0.2292
813.0,0.2228
814.0,0.1827
815.0,0.1828
816.0,0.1682
817.0,0.1718
818.0,0.1623
819.0,0.1926
820.0,0.1777
821.0,0.2252
822.0,0.2159
823.0,0.1216
824.0,0.2028
825.0,0.2216
826.0,0.2072
827.0,0.2246
828.0,0.1735
829.0,0.2072
830.0,0.2034
831.0,0.2039
832.0,0.1946
833.0,0.2146
834.0,0.2021
835.0,0.2348
836.0,0.2157
837.0,0.2355
838.0,0.2236
839.0,0.2322
840.0,0.2384
841.0,0.2331
842.0,0.2366
843.0,0.2397
844.0,0.2347
845.0,0.2448
846.0,0.2443
847.0,0.2407
848.0,0.2378
849.0,0.2311
850.0,0.2215
851.0,0.233
852.0,0.2321
853.0,0.2246
854.0,0.1929
855.0,0.2134
856.0,0.2326
857.0,0.2387
858.0,0.2365
859.0,0.2374
860.0,0.2383
861.0,0.2368
862.0,0.2408
863.0,0.2465
864.0,0.2342
865.0,0.2323
866.0,0.2089
867.0,0.218
868.0,0.2373
869.0,0.2325
870.0,0.2391
871.0,0.2359
872.0,0.2351
873.0,0.2347
874.0,0.2319
875.0,0.2271
876.0,0.2294
877.0,0.2318
878.0,0.2341
879.0,0.2306
880.0,0.2256
881.0,0.2216
882.0,0.226
883.0,0.2275
884.0,0.2262
885.0,0.2278
886.0,0.2147
887.0,0.2189
888.0,0.2211
889.0,0.2257
890.0,0.2211
891.0,0.2221
892.0,0.2123
893.0,0.2026
894.0,0.1885
895.0,0.1696
896.0,0.1578
897.0,0.1265
898.0,0.1421
899.0,0.09828
900.0,0.1515
901.0,0.103
902.0,0.1336
903.0,0.1301
904.0,0.1867
905.0,0.1775
906.0,0.1634
907.0,0.1174
908.0,0.1232
909.0,0.1387
910.0,0.112
911.0,0.1283
912.0,0.1339
913.0,0.1131
914.0,0.1145
915.0,0.1228
916.0,0.1028
917.0,0.1407
918.0,0.1044
919.0,0.1472
920.0,0.1578
921.0,0.163
922.0,0.1378
923.0,0.1585
924.0,0.1385
925.0,0.1362
926.0,0.136
927.0,0.1599
928.0,0.09503
929.0,0.08123
930.0,0.05503
931.0,0.05177
932.0,0.02955
933.0,0.02113
934.0,0.006542
935.0,0.02374
936.0,0.01116
937.0,0.01127
938.0,0.01504
939.0,0.04991
940.0,0.06639
941.0,0.04247
942.0,0.0527
943.0,0.0292
944.0,0.03644
945.0,0.04551
946.0,0.01623
947.0,0.04374
948.0,0.03154
949.0,0.06622
950.0,0.009589
951.0,0.06574
952.0,0.02672
953.0,0.04014
954.0,0.05591
955.0,0.0414
956.0,0.04848
957.0,0.02647
958.0,0.07546
959.0,0.05068
960.0,0.05692
961.0,0.07131
962.0,0.06729
963.0,0.08435
964.0,0.07543
965.0,0.08339
966.0,0.08309
967.0,0.08153
968.0,0.1382
969.0,0.1393
970.0,0.1258
971.0,0.1569
972.0,0.147
973.0,0.115
974.0,0.1086
975.0,0.1163
976.0,0.1031
977.0,0.1332
978.0,0.1199
979.0,0.1289
980.0,0.1197
981.0,0.1563
982.0,0.1446
983.0,0.1364
984.0,0.1674
985.0,0.1436
986.0,0.1745
987.0,0.167
988.0,0.1671
989.0,0.1767
990.0,0.1659
991.0,0.1767
992.0,0.1782
993.0,0.17
994.0,0.1787
995.0,0.1792
996.0,0.1777
997.0,0.1783
998.0,0.1772
999.0,0.1767
1000.0,0.1744
1001.0,0.1778
1002.0,0.1681
1003.0,0.1744
1004.0,0.1689
1005.0,0.1644
1006.0,0.17
1007.0,0.174
1008.0,0.1723
1009.0,0.1704
1010.0,0.1692
1011.0,0.1733
1012.0,0.1709
1013.0,0.1731
1014.0,0.1719
1015.0,0.1706
1016.0,0.1698
1017.0,0.17
1018.0,0.17
1019.0,0.1645
1020.0,0.1688
1021.0,0.1689
1022.0,0.1669
1023.0,0.1686
1024.0,0.1645
1025.0,0.1691
1026.0,0.1678
1027.0,0.1676
1028.0,0.1671
1029.0,0.1649
1030.0,0.1667
1031.0,0.1658
1032.0,0.1655
1033.0,0.163
1034.0,0.163
1035.0,0.1635
1036.0,0.1642
1037.0,0.1616
1038.0,0.1622
1039.0,0.162
1040.0,0.1613
1041.0,0.1618
1042.0,0.1606
1043.0,0.16
1044.0,0.1605
1045.0,0.1582
1046.0,0.1563
1047.0,0.1576
1048.0,0.1583
1049.0,0.1576
1050.0,0.1567
1051.0,0.1562
1052.0,0.1554
1053.0,0.154
1054.0,0.154
1055.0,0.1538
1056.0,0.153
1057.0,0.1522
1058.0,0.1482
1059.0,0.1481
1060.0,0.1477
1061.0,0.1474
1062.0,0.1478
1063.0,0.1461
1064.0,0.148
1065.0,0.1462
1066.0,0.1438
1067.0,0.1455
1068.0,0.1418
1069.0,0.1379
1070.0,0.1421
1071.0,0.1459
1072.0,0.143
1073.0,0.1412
1074.0,0.1467
1075.0,0.1351
1076.0,0.1464
1077.0,0.1414
1078.0,0.1374
1079.0,0.1449
1080.0,0.1392
1081.0,0.1324
1082.0,0.1384
1083.0,0.1399
1084.0,0.1313
1085.0,0.1398
1086.0,0.1219
1087.0,0.1295
1088.0,0.1391
1089.0,0.1302
1090.0,0.1255
1091.0,0.1375
1092.0,0.1378
1093.0,0.1059
1094.0,0.1247
1095.0,0.1106
1096.0,0.1031
1097.0,0.1347
1098.0,0.09964
1099.0,0.1054
1100.0,0.09417
1101.0,0.09693
1102.0,0.08956
1103.0,0.08662
1104.0,0.08709
1105.0,0.102
1106.0,0.06232
1107.0,0.09412
1108.0,0.0704
1109.0,0.07175
1110.0,0.09087
1111.0,0.04918
1112.0,0.07174
1113.0,0.03447
1114.0,0.03875
1115.0,0.03108
1116.0,0.01971
1117.0,0.00368
1118.0,0.02237
1119.0,0.007469
1120.0,0.008815
1121.0,0.0133
1122.0,0.003232
1123.0,0.008079
1124.0,0.006769
1125.0,0.009722
1126.0,0.001365
1127.0,0.01118
1128.0,0.004131
1129.0,0.004564
1130.0,0.002761
1131.0,0.02995
1132.0,0.02158
1133.0,0.009244
1134.0,0.001024
1135.0,0.0004675
1136.0,0.006409
1137.0,0.02762
1138.0,0.01841
1139.0,0.03917
1140.0,0.0281
1141.0,0.01767
1142.0,0.02222
1143.0,0.03703
1144.0,0.008275
1145.0,0.008827
1146.0,0.009487
1147.0,0.001486
1148.0,0.03101
1149.0,0.02167
1150.0,0.01005
1151.0,0.0183
1152.0,0.0262
1153.0,0.02867
1154.0,0.009118
1155.0,0.04076
1156.0,0.03416
1157.0,0.04427
1158.0,0.04357
1159.0,0.04936
1160.0,0.04065
1161.0,0.05749
1162.0,0.05686
1163.0,0.09168
1164.0,0.07343
1165.0,0.06407
1166.0,0.06815
1167.0,0.07669
1168.0,0.07653
1169.0,0.07955
1170.0,0.09123
1171.0,0.08893
1172.0,0.09393
1173.0,0.09115
1174.0,0.05503
1175.0,0.09225
1176.0,0.1082
1177.0,0.09913
1178.0,0.06657
1179.0,0.109
1180.0,0.09002
1181.0,0.09309
1182.0,0.05503
1183.0,0.09309
1184.0,0.08401
1185.0,0.07812
1186.0,0.1026
1187.0,0.09442
1188.0,0.05408
1189.0,0.08755
1190.0,0.1011
1191.0,0.08928
1192.0,0.1032
1193.0,0.0966
1194.0,0.1011
1195.0,0.09105
1196.0,0.08531
1197.0,0.1028
1198.0,0.09238
1199.0,0.06949
1200.0,0.0954
1201.0,0.0885
1202.0,0.0912
1203.0,0.08825
1204.0,0.07369
1205.0,0.09568
1206.0,0.1101
1207.0,0.08948
1208.0,0.09088
1209.0,0.09308
1210.0,0.09915
1211.0,0.09133
1212.0,0.08472
1213.0,0.1038
1214.0,0.08865
1215.0,0.0866
1216.0,0.1041
1217.0,0.09967
1218.0,0.1031
1219.0,0.1007
1220.0,0.1034
1221.0,0.1057
1222.0,0.1022
1223.0,0.1004
1224.0,0.09769
1225.0,0.1046
1226.0,0.1068
1227.0,0.09345
1228.0,0.1084
1229.0,0.1069
1230.0,0.1041
1231.0,0.1103
1232.0,0.1095
1233.0,0.1014
1234.0,0.1112
1235.0,0.1098
1236.0,0.1111
1237.0,0.1079
1238.0,0.1108
1239.0,0.1093
1240.0,0.11
1241.0,0.1083
1242.0,0.1091
1243.0,0.1083
1244.0,0.1087
1245.0,0.1094
1246.0,0.1088
1247.0,0.108
1248.0,0.1073
1249.0,0.1082
1250.0,0.1072
1251.0,0.1051
1252.0,0.106
1253.0,0.1035
1254.0,0.1012
1255.0,0.1055
1256.0,0.09938
1257.0,0.0982
1258.0,0.1025
1259.0,0.09406
1260.0,0.09513
1261.0,0.08411
1262.0,0.07873
1263.0,0.07874
1264.0,0.0665
1265.0,0.07833
1266.0,0.07165
1267.0,0.07549
1268.0,0.06754
1269.0,0.02272
1270.0,0.07419
1271.0,0.08461
1272.0,0.08543
1273.0,0.08388
1274.0,0.08503
1275.0,0.08727
1276.0,0.08926
1277.0,0.0914
1278.0,0.09537
1279.0,0.09445
1280.0,0.09336
1281.0,0.09018
1282.0,0.0887
1283.0,0.09515
1284.0,0.09711
1285.0,0.09807
1286.0,0.1004
1287.0,0.09699
1288.0,0.09759
1289.0,0.09088
1290.0,0.09687
1291.0,0.0989
1292.0,0.08658
1293.0,0.09554
1294.0,0.09462
1295.0,0.09187
1296.0,0.08403
1297.0,0.07698
1298.0,0.08858
1299.0,0.09619
1300.0,0.07223
1301.0,0.07587
1302.0,0.08854
1303.0,0.07206
1304.0,0.0536
1305.0,0.08629
1306.0,0.08518
1307.0,0.05761
1308.0,0.07356
1309.0,0.08292
1310.0,0.05564
1311.0,0.06859
1312.0,0.06586
1313.0,0.06227
1314.0,0.05276
1315.0,0.05049
1316.0,0.06595
1317.0,0.06118
1318.0,0.07003
1319.0,0.04542
1320.0,0.0456
1321.0,0.05657
1322.0,0.05529
1323.0,0.0344
1324.0,0.045
1325.0,0.06368
1326.0,0.05018
1327.0,0.04648
1328.0,0.03742
1329.0,0.02224
1330.0,0.03225
1331.0,0.01385
1332.0,0.01565
1333.0,0.02281
1334.0,0.02342
1335.0,0.03341
1336.0,0.02294
1337.0,0.01975
1338.0,0.02089
1339.0,0.02143
1340.0,0.02256
1341.0,0.01791
1342.0,0.01943
1343.0,0.007999
1344.0,0.005276
1345.0,0.007022
1346.0,0.001623
1347.0,0.001391
1348.0,2.268e-05
1349.0,0.0001051
1350.0,0.0001291
1351.0,1.006e-05
1352.0,1.145e-06
1353.0,5.165e-08
1354.0,1.995e-07
1355.0,1.368e-09
1356.0,2.506e-08
1357.0,3.797e-08
1358.0,1.607e-09
1359.0,2.015e-10
1360.0,7.292e-10
1361.0,8.145e-13
1362.0,2.228e-15
1363.0,9.792e-10
1364.0,4.044e-10
1365.0,7.779e-16
1366.0,4.245e-09
1367.0,1.735e-09
1368.0,6.006e-18
1369.0,1.49e-10
1370.0,7.335e-11
1371.0,4.158e-12
1372.0,9.416e-10
1373.0,1.92e-08
1374.0,9.277e-08
1375.0,1.639e-07
1376.0,1.735e-07
1377.0,7.698e-08
1378.0,7.41e-07
1379.0,3.297e-08
1380.0,4.17e-08
1381.0,1.074e-09
1382.0,8.245e-10
1383.0,1.232e-11
1384.0,1.614e-10
1385.0,7.797e-10
1386.0,7.261e-10
1387.0,8.89e-08
1388.0,1.819e-09
1389.0,3.25e-07
1390.0,2.724e-07
1391.0,1.822e-07
1392.0,1.201e-08
1393.0,6.762e-08
1394.0,3.022e-08
1395.0,2.205e-10
1396.0,1.06e-12
1397.0,2.524e-08
1398.0,7.623e-07
1399.0,4.93e-07
1400.0,4.534e-13
1401.0,1.881e-12
1402.0,3.466e-06
1403.0,3.127e-06
1404.0,8.033e-07
1405.0,1.04e-10
1406.0,1.535e-06
1407.0,2.473e-07
1408.0,1.32e-06
1409.0,3.522e-07
1410.0,3.77e-07
1411.0,2.926e-06
1412.0,5.763e-06
1413.0,0.0001499
1414.0,3.213e-07
1415.0,1.318e-07
1416.0,0.000727
1417.0,0.0001142
1418.0,7.239e-05
1419.0,9.733e-06
1420.0,4.337e-05
