interpolation:linear
wavelength,value
280.0,1.8140000000000002e-20
280.5,5.318e-19
281.0,2.746e-18
281.5,4.152e-19
282.0,1.604e-18
282.5,4.425e-18
283.0,1.457e-17
283.5,2.396e-17
284.0,3.809e-16
284.5,1.082e-15
285.0,1.939e-15
285.5,1.082e-14
286.0,4.478e-14
286.5,2.06e-13
287.0,5.944e-13
287.5,2.281e-12
288.0,6.418e-12
288.5,2.437e-11
289.0,7.814e-11
289.5,2.787e-10
290.0,8.729e-10
290.5,1.957e-09
291.0,4.672e-09
291.5,1.521e-08
292.0,4.109e-08
292.5,6.518e-08
293.0,1.639e-07
293.5,4.994e-07
294.0,9.249e-07
294.5,1.231e-06
295.0,2.461e-06
295.5,6.395e-06
296.0,1.247e-05
296.5,1.764e-05
297.0,2.407e-05
297.5,6.534e-05
298.0,0.000104
298.5,0.0001055
299.0,0.0002343
299.5,0.0003936
300.0,0.0004364
300.5,0.0006375
301.0,0.00117
301.5,0.001896
302.0,0.001639
302.5,0.003136
303.0,0.005476
303.5,0.006767
304.0,0.006272
304.5,0.009026
305.0,0.013
305.5,0.01442
306.0,0.01379
306.5,0.01681
307.0,0.02383
307.5,0.03033
308.0,0.03182
308.5,0.03678
309.0,0.03571
309.5,0.03967
310.0,0.0393
310.5,0.06322
311.0,0.07844
311.5,0.07534
312.0,0.07345
312.5,0.08787
313.0,0.09446
313.5,0.09249
314.0,0.1133
314.5,0.09774
315.0,0.1278
315.5,0.1084
316.0,0.09254
316.5,0.1303
317.0,0.1619
317.5,0.1694
318.0,0.1304
318.5,0.1578
319.0,0.1849
319.5,0.1539
320.0,0.1865
320.5,0.2274
321.0,0.1977
321.5,0.1891
322.0,0.2068
322.5,0.1796
323.0,0.176
323.5,0.2129
324.0,0.2479
324.5,0.2533
325.0,0.2208
325.5,0.2801
326.0,0.3411
326.5,0.3386
327.0,0.3386
327.5,0.3284
328.0,0.2959
328.5,0.3065
329.0,0.3628
329.5,0.4104
330.0,0.4152
330.5,0.3352
331.0,0.3426
331.5,0.3459
332.0,0.3701
332.5,0.3645
333.0,0.3643
333.5,0.3321
334.0,0.3406
334.5,0.3899
335.0,0.3647
335.5,0.4259
336.0,0.2947
336.5,0.3459
337.0,0.2847
337.5,0.3546
338.0,0.3439
338.5,0.3969
339.0,0.3927
339.5,0.3778
340.0,0.4441
340.5,0.4001
341.0,0.3902
341.5,0.3582
342.0,0.428
342.5,0.4004
343.0,0.4405
343.5,0.4148
344.0,0.3065
344.5,0.3097
345.0,0.4097
345.5,0.4182
346.0,0.3554
346.5,0.4024
347.0,0.432
347.5,0.3493
348.0,0.3982
348.5,0.3979
349.0,0.3691
349.5,0.3655
350.0,0.4521
350.5,0.4768
351.0,0.426
351.5,0.4142
352.0,0.4448
352.5,0.3471
353.0,0.4371
353.5,0.4674
354.0,0.4852
354.5,0.4921
355.0,0.4905
355.5,0.4431
356.0,0.4636
356.5,0.3958
357.0,0.3271
357.5,0.4005
358.0,0.3174
358.5,0.2712
359.0,0.3794
359.5,0.4835
360.0,0.5126
360.5,0.4097
361.0,0.3735
361.5,0.43
362.0,0.3719
362.5,0.5146
363.0,0.4622
363.5,0.4258
364.0,0.5207
364.5,0.4451
365.0,0.4534
365.5,0.569
366.0,0.6029
366.5,0.5665
367.0,0.5517
367.5,0.5726
368.0,0.5011
368.5,0.5056
369.0,0.5461
369.5,0.5821
370.0,0.6205
370.5,0.4817
371.0,0.5147
371.5,0.6439
372.0,0.4274
372.5,0.5125
373.0,0.5214
373.5,0.3392
374.0,0.493
374.5,0.4083
375.0,0.3969
375.5,0.5926
376.0,0.4913
376.5,0.5092
377.0,0.5391
377.5,0.6308
378.0,0.6838
378.5,0.6464
379.0,0.5335
379.5,0.4873
380.0,0.5067
380.5,0.6138
381.0,0.6151
381.5,0.4876
382.0,0.4331
382.5,0.3692
383.0,0.3418
383.5,0.3292
384.0,0.3632
384.5,0.5343
385.0,0.5298
385.5,0.4935
386.0,0.4227
386.5,0.5552
387.0,0.4614
387.5,0.5183
388.0,0.4786
388.5,0.4731
389.0,0.5107
389.5,0.6186
390.0,0.6209
390.5,0.5714
391.0,0.6727
391.5,0.6862
392.0,0.578
392.5,0.5175
393.0,0.288
393.5,0.2093
394.0,0.426
394.5,0.5416
395.0,0.661
395.5,0.6715
396.0,0.5822
396.5,0.3404
397.0,0.2555
397.5,0.5196
398.0,0.7276
398.5,0.7522
399.0,0.8145
399.5,0.8119
400.0,0.8431
401.0,0.8562
402.0,0.9033
403.0,0.8582
404.0,0.845
405.0,0.845
406.0,0.8313
407.0,0.8179
408.0,0.85
409.0,0.9098
410.0,0.795
411.0,0.8611
412.0,0.9249
413.0,0.9021
414.0,0.9131
415.0,0.9155
416.0,0.9316
417.0,0.9087
418.0,0.892
419.0,0.9037
420.0,0.8998
421.0,0.9413
422.0,0.8948
423.0,0.8741
424.0,0.9245
425.0,0.9228
426.0,0.8989
427.0,0.8821
428.0,0.8593
429.0,0.8139
430.0,0.7123
431.0,0.706
432.0,0.9115
433.0,0.9166
434.0,0.8511
435.0,0.889
436.0,1.002
437.0,0.9879
438.0,0.8996
439.0,0.9307
440.0,0.9603
441.0,0.9949
442.0,1.067
443.0,1.039
444.0,1.062
445.0,1.039
446.0,0.9914
447.0,1.072
448.0,1.089
449.0,1.093
450.0,1.123
451.0,1.165
452.0,1.122
453.0,1.055
454.0,1.102
455.0,1.108
456.0,1.135
457.0,1.154
458.0,1.114
459.0,1.109
460.0,1.112
461.0,1.137
462.0,1.146
463.0,1.138
464.0,1.119
465.0,1.105
466.0,1.115
467.0,1.095
468.0,1.108
469.0,1.114
470.0,1.078
471.0,1.077
472.0,1.135
473.0,1.12
474.0,1.122
475.0,1.132
476.0,1.098
477.0,1.101
478.0,1.132
479.0,1.125
480.0,1.127
481.0,1.147
482.0,1.153
483.0,1.139
484.0,1.116
485.0,1.063
486.0,0.9288
487.0,0.9732
488.0,1.068
489.0,1.071
490.0,1.127
491.0,1.107
492.0,1.046
493.0,1.08
494.0,1.091
495.0,1.1
496.0,1.107
497.0,1.124
498.0,1.071
499.0,1.085
500.0,1.054
501.0,1.034
502.0,1.02
503.0,1.062
504.0,1.036
505.0,1.072
506.0,1.107
507.0,1.053
508.0,1.02
509.0,1.049
510.0,1.043
511.0,1.071
512.0,1.082
513.0,1.024
514.0,1.017
515.0,1.007
516.0,1.005
517.0,0.8925
518.0,0.9384
519.0,0.9843
520.0,1.02
521.0,1.03
522.0,1.031
523.0,1.012
524.0,1.049
525.0,1.061
526.0,1.014
527.0,0.9557
528.0,1.011
529.0,1.066
530.0,1.05
531.0,1.066
532.0,1.03
533.0,0.9994
534.0,1.029
535.0,1.051
536.0,1.061
537.0,1.019
538.0,1.037
539.0,1.028
540.0,0.9856
541.0,0.9925
542.0,1.024
543.0,1.013
544.0,1.03
545.0,1.027
546.0,1.032
547.0,1.031
548.0,1.019
549.0,1.022
550.0,1.034
551.0,1.021
552.0,1.029
553.0,1.01
554.0,1.034
555.0,1.036
556.0,1.023
557.0,0.9914
558.0,0.984
559.0,0.9658
560.0,0.978
561.0,0.9908
562.0,0.9838
563.0,1.011
564.0,0.9835
565.0,0.9752
566.0,0.961
567.0,0.9794
568.0,0.9711
569.0,0.949
570.0,0.9486
571.0,0.9426
572.0,0.9659
573.0,0.9763
574.0,0.9734
575.0,0.9554
576.0,0.9467
577.0,0.9569
578.0,0.9423
579.0,0.9455
580.0,0.9629
581.0,0.9673
582.0,0.9852
583.0,0.9872
584.0,0.9956
585.0,0.9711
586.0,0.9511
587.0,0.9723
588.0,0.9498
589.0,0.8438
590.0,0.8822
591.0,0.9322
592.0,0.9212
593.0,0.9338
594.0,0.9278
595.0,0.9057
596.0,0.9395
597.0,0.9298
598.0,0.9269
599.0,0.9274
600.0,0.9283
601.0,0.9204
602.0,0.9141
603.0,0.929
604.0,0.9443
605.0,0.9393
606.0,0.9353
607.0,0.9443
608.0,0.9337
609.0,0.9352
610.0,0.9283
611.0,0.933
612.0,0.9302
613.0,0.9184
614.0,0.9057
615.0,0.9252
616.0,0.8946
617.0,0.8927
618.0,0.927
619.0,0.9175
620.0,0.9234
621.0,0.9244
622.0,0.9137
623.0,0.9
624.0,0.8844
625.0,0.8824
626.0,0.8955
627.0,0.9059
628.0,0.8509
629.0,0.8862
630.0,0.8659
631.0,0.8838
632.0,0.8729
633.0,0.8988
634.0,0.8895
635.0,0.9031
636.0,0.8909
637.0,0.9052
638.0,0.9136
639.0,0.9031
640.0,0.8942
641.0,0.8934
642.0,0.8892
643.0,0.9011
644.0,0.898
645.0,0.8996
646.0,0.8792
647.0,0.8701
648.0,0.871
649.0,0.8542
650.0,0.8567
651.0,0.8935
652.0,0.8581
653.0,0.8815
654.0,0.8716
655.0,0.84
656.0,0.7439
657.0,0.7638
658.0,0.8555
659.0,0.8614
660.0,0.8648
661.0,0.8709
662.0,0.873
663.0,0.8556
664.0,0.8653
665.0,0.8656
666.0,0.8661
667.0,0.8651
668.0,0.8653
669.0,0.8786
670.0,0.8747
671.0,0.8744
672.0,0.8669
673.0,0.8798
674.0,0.8765
675.0,0.8684
676.0,0.8743
677.0,0.8656
678.0,0.868
679.0,0.8539
680.0,0.8607
681.0,0.855
682.0,0.8539
683.0,0.8523
684.0,0.848
685.0,0.8552
686.0,0.8502
687.0,0.5854
688.0,0.6761
689.0,0.6782
690.0,0.708
691.0,0.7414
692.0,0.7653
693.0,0.7594
694.0,0.753
695.0,0.7817
696.0,0.7827
697.0,0.8275
698.0,0.8147
699.0,0.7973
700.0,0.7877
701.0,0.7804
702.0,0.785
703.0,0.7864
704.0,0.8103
705.0,0.8115
706.0,0.8103
707.0,0.8108
708.0,0.8125
709.0,0.8129
710.0,0.8133
711.0,0.8119
712.0,0.8091
713.0,0.8013
714.0,0.8042
715.0,0.7797
716.0,0.7803
717.0,0.6845
718.0,0.6299
719.0,0.5778
720.0,0.6058
721.0,0.664
722.0,0.7546
723.0,0.7051
724.0,0.6383
725.0,0.6291
726.0,0.6581
727.0,0.6656
728.0,0.6279
729.0,0.6487
730.0,0.6864
731.0,0.6575
732.0,0.7005
733.0,0.7387
734.0,0.7555
735.0,0.7402
736.0,0.7392
737.0,0.7423
738.0,0.7518
739.0,0.7371
740.0,0.7557
741.0,0.7478
742.0,0.7482
743.0,0.7672
744.0,0.7648
745.0,0.7647
746.0,0.7682
747.0,0.7699
748.0,0.7683
749.0,0.7595
750.0,0.759
751.0,0.7513
752.0,0.7545
753.0,0.7583
754.0,0.76
755.0,0.7557
756.0,0.7554
757.0,0.7565
758.0,0.7471
759.0,0.733
760.0,0.1414
761.0,0.07809
762.0,0.3954
763.0,0.2089
764.0,0.3041
765.0,0.3955
766.0,0.4761
767.0,0.5913
768.0,0.6749
769.0,0.6874
770.0,0.7089
771.0,0.7138
772.0,0.715
773.0,0.72
774.0,0.7164
775.0,0.7109
776.0,0.7196
777.0,0.7101
778.0,0.7058
779.0,0.7064
780.0,0.7024
781.0,0.7031
782.0,0.7075
783.0,0.6951
784.0,0.6985
785.0,0.6933
786.0,0.701
787.0,0.6896
788.0,0.6814
789.0,0.6812
790.0,0.6643
791.0,0.6689
792.0,0.6638
793.0,0.6532
794.0,0.6632
795.0,0.6747
796.0,0.6555
797.0,0.6564
798.0,0.674
799.0,0.67
800.0,0.6588
801.0,0.6571
802.0,0.6551
803.0,0.6504
804.0,0.6511
805.0,0.6486
806.0,0.666
807.0,0.6582
808.0,0.6587
809.0,0.6469
810.0,0.642
811.0,0.6436
812.0,0.6262
813.0,0.6139
814.0,0.5436
815.0,0.5402
816.0,0.5032
817.0,0.512
818.0,0.4937
819.0,0.5488
820.0,0.5181
821.0,0.6013
822.0,0.5848
823.0,0.4044
824.0,0.5693
825.0,0.591
826.0,0.5699
827.0,0.6001
828.0,0.5126
829.0,0.5662
830.0,0.5592
831.0,0.561
832.0,0.5445
833.0,0.5774
834.0,0.5582
835.0,0.6105
836.0,0.5861
837.0,0.6121
838.0,0.5938
839.0,0.6027
840.0,0.6157
841.0,0.6073
842.0,0.6081
843.0,0.6073
844.0,0.5991
845.0,0.619
846.0,0.6162
847.0,0.6046
848.0,0.601
849.0,0.584
850.0,0.5595
851.0,0.5926
852.0,0.5883
853.0,0.5661
854.0,0.4889
855.0,0.537
856.0,0.5869
857.0,0.5998
858.0,0.5955
859.0,0.5959
860.0,0.5969
861.0,0.5937
862.0,0.603
863.0,0.6172
864.0,0.5863
865.0,0.5812
866.0,0.5226
867.0,0.5453
868.0,0.5934
869.0,0.5811
870.0,0.5977
871.0,0.5895
872.0,0.5874
873.0,0.5863
874.0,0.5793
875.0,0.5676
876.0,0.5735
877.0,0.5793
878.0,0.5856
879.0,0.5766
880.0,0.5642
881.0,0.5558
882.0,0.5679
883.0,0.5696
884.0,0.567
885.0,0.5713
886.0,0.5448
887.0,0.5503
888.0,0.5586
889.0,0.5647
890.0,0.5602
891.0,0.5591
892.0,0.5434
893.0,0.5269
894.0,0.5093
895.0,0.4824
896.0,0.4549
897.0,0.3923
898.0,0.4273
899.0,0.3268
900.0,0.4365
901.0,0.3425
902.0,0.3995
903.0,0.4043
904.0,0.5054
905.0,0.4886
906.0,0.4576
907.0,0.3741
908.0,0.3812
909.0,0.4119
910.0,0.3661
911.0,0.3891
912.0,0.4063
913.0,0.3717
914.0,0.3682
915.0,0.399
916.0,0.3382
917.0,0.4272
918.0,0.3468
919.0,0.4345
920.0,0.4379
921.0,0.4553
922.0,0.4083
923.0,0.4397
924.0,0.4186
925.0,0.4095
926.0,0.414
927.0,0.4623
928.0,0.3426
929.0,0.3136
930.0,0.2477
931.0,0.2345
932.0,0.1702
933.0,0.1389
934.0,0.07751
935.0,0.1416
936.0,0.08927
937.0,0.09057
938.0,0.1111
939.0,0.2272
940.0,0.2725
941.0,0.2068
942.0,0.2388
943.0,0.1579
944.0,0.1655
945.0,0.213
946.0,0.1095
947.0,0.2143
948.0,0.1576
949.0,0.2858
950.0,0.08102
951.0,0.2812
952.0,0.1525
953.0,0.196
954.0,0.2393
955.0,0.1981
956.0,0.1918
957.0,0.1528
958.0,0.2704
959.0,0.2159
960.0,0.242
961.0,0.2707
962.0,0.2562
963.0,0.2947
964.0,0.2702
965.0,0.2935
966.0,0.2937
967.0,0.2926
968.0,0.3897
969.0,0.4073
970.0,0.3744
971.0,0.4274
972.0,0.4091
973.0,0.3573
974.0,0.3393
975.0,0.3517
976.0,0.3346
977.0,0.3796
978.0,0.3611
979.0,0.3779
980.0,0.3555
981.0,0.4249
982.0,0.4067
983.0,0.3907
984.0,0.4374
985.0,0.4051
986.0,0.4448
987.0,0.4364
988.0,0.4356
989.0,0.4433
990.0,0.433
991.0,0.4446
992.0,0.4472
993.0,0.4375
994.0,0.447
995.0,0.4464
996.0,0.4445
997.0,0.4451
998.0,0.443
999.0,0.4414
1000.0,0.4383
1001.0,0.4437
1002.0,0.4318
1003.0,0.4359
1004.0,0.4253
1005.0,0.4096
1006.0,0.4257
1007.0,0.4347
1008.0,0.4324
1009.0,0.4301
1010.0,0.4283
1011.0,0.4325
1012.0,0.4288
1013.0,0.4314
1014.0,0.4284
1015.0,0.4256
1016.0,0.4237
1017.0,0.4247
1018.0,0.4231
1019.0,0.4142
1020.0,0.4209
1021.0,0.4203
1022.0,0.4171
1023.0,0.4215
1024.0,0.4161
1025.0,0.4212
1026.0,0.4194
1027.0,0.4184
1028.0,0.4175
1029.0,0.4126
1030.0,0.4154
1031.0,0.4138
1032.0,0.4126
1033.0,0.4063
1034.0,0.4064
1035.0,0.4076
1036.0,0.4098
1037.0,0.4031
1038.0,0.4049
1039.0,0.4046
1040.0,0.403
1041.0,0.4046
1042.0,0.4018
1043.0,0.4005
1044.0,0.4019
1045.0,0.3965
1046.0,0.3921
1047.0,0.3957
1048.0,0.3978
1049.0,0.3964
1050.0,0.3946
1051.0,0.3941
1052.0,0.3925
1053.0,0.3893
1054.0,0.3902
1055.0,0.3904
1056.0,0.3891
1057.0,0.3879
1058.0,0.3784
1059.0,0.3788
1060.0,0.3782
1061.0,0.3778
1062.0,0.3798
1063.0,0.376
1064.0,0.3805
1065.0,0.3778
1066.0,0.3703
1067.0,0.3751
1068.0,0.3669
1069.0,0.3555
1070.0,0.3676
1071.0,0.3733
1072.0,0.369
1073.0,0.3637
1074.0,0.373
1075.0,0.3546
1076.0,0.3727
1077.0,0.3662
1078.0,0.3593
1079.0,0.3667
1080.0,0.3606
1081.0,0.3491
1082.0,0.3545
1083.0,0.3555
1084.0,0.3483
1085.0,0.3613
1086.0,0.3301
1087.0,0.3405
1088.0,0.3552
1089.0,0.3446
1090.0,0.3371
1091.0,0.3541
1092.0,0.3532
1093.0,0.3002
1094.0,0.3232
1095.0,0.3127
1096.0,0.2996
1097.0,0.345
1098.0,0.295
1099.0,0.3076
1100.0,0.2863
1101.0,0.2898
1102.0,0.277
1103.0,0.2744
1104.0,0.2748
1105.0,0.3006
1106.0,0.2313
1107.0,0.2858
1108.0,0.243
1109.0,0.2433
1110.0,0.2834
1111.0,0.1932
1112.0,0.2414
1113.0,0.1547
1114.0,0.1728
1115.0,0.1433
1116.0,0.115
1117.0,0.04283
1118.0,0.1249
1119.0,0.06244
1120.0,0.07863
1121.0,0.1041
1122.0,0.04419
1123.0,0.07104
1124.0,0.05996
1125.0,0.07812
1126.0,0.02757
1127.0,0.08808
1128.0,0.05311
1129.0,0.0563
1130.0,0.03719
1131.0,0.1661
1132.0,0.1305
1133.0,0.0832
1134.0,0.02156
1135.0,0.008062
1136.0,0.06959
1137.0,0.1633
1138.0,0.1151
1139.0,0.1707
1140.0,0.143
1141.0,0.1094
1142.0,0.1257
1143.0,0.178
1144.0,0.06268
1145.0,0.08024
1146.0,0.08654
1147.0,0.03082
1148.0,0.1541
1149.0,0.1233
1150.0,0.06738
1151.0,0.1143
1152.0,0.1403
1153.0,0.1364
1154.0,0.07782
1155.0,0.1781
1156.0,0.1606
1157.0,0.1798
1158.0,0.1778
1159.0,0.1915
1160.0,0.164
1161.0,0.2013
1162.0,0.2024
1163.0,0.2716
1164.0,0.2336
1165.0,0.221
1166.0,0.219
1167.0,0.2382
1168.0,0.241
1169.0,0.2465
1170.0,0.2673
1171.0,0.2607
1172.0,0.2651
1173.0,0.2667
1174.0,0.1922
1175.0,0.2603
1176.0,0.2852
1177.0,0.2744
1178.0,0.2074
1179.0,0.2875
1180.0,0.2576
1181.0,0.2658
1182.0,0.1849
1183.0,0.2615
1184.0,0.2456
1185.0,0.2374
1186.0,0.2799
1187.0,0.2671
1188.0,0.1882
1189.0,0.2489
1190.0,0.2735
1191.0,0.2606
1192.0,0.2772
1193.0,0.266
1194.0,0.2739
1195.0,0.2597
1196.0,0.2506
1197.0,0.2737
1198.0,0.2509
1199.0,0.2149
1200.0,0.2627
1201.0,0.2539
1202.0,0.2521
1203.0,0.25
1204.0,0.2195
1205.0,0.2575
1206.0,0.2836
1207.0,0.2516
1208.0,0.2472
1209.0,0.2521
1210.0,0.2623
1211.0,0.2504
1212.0,0.2481
1213.0,0.2746
1214.0,0.2537
1215.0,0.2491
1216.0,0.2737
1217.0,0.2668
1218.0,0.2715
1219.0,0.2683
1220.0,0.2717
1221.0,0.2743
1222.0,0.2673
1223.0,0.265
1224.0,0.2636
1225.0,0.2725
1226.0,0.2742
1227.0,0.2537
1228.0,0.2754
1229.0,0.2742
1230.0,0.2697
1231.0,0.2768
1232.0,0.2752
1233.0,0.2664
1234.0,0.2764
1235.0,0.2748
1236.0,0.2767
1237.0,0.2731
1238.0,0.2758
1239.0,0.2722
1240.0,0.2732
1241.0,0.2721
1242.0,0.2714
1243.0,0.2691
1244.0,0.2711
1245.0,0.2722
1246.0,0.2706
1247.0,0.2696
1248.0,0.2695
1249.0,0.2703
1250.0,0.2687
1251.0,0.2654
1252.0,0.2653
1253.0,0.2634
1254.0,0.2609
1255.0,0.2651
1256.0,0.2581
1257.0,0.2567
1258.0,0.2612
1259.0,0.2524
1260.0,0.2536
1261.0,0.2403
1262.0,0.2335
1263.0,0.2339
1264.0,0.217
1265.0,0.2324
1266.0,0.2243
1267.0,0.2278
1268.0,0.2167
1269.0,0.1388
1270.0,0.2271
1271.0,0.2393
1272.0,0.24
1273.0,0.2376
1274.0,0.2382
1275.0,0.2415
1276.0,0.2437
1277.0,0.2451
1278.0,0.2495
1279.0,0.2473
1280.0,0.2441
1281.0,0.2328
1282.0,0.224
1283.0,0.2413
1284.0,0.2471
1285.0,0.2487
1286.0,0.2519
1287.0,0.2483
1288.0,0.2482
1289.0,0.2409
1290.0,0.246
1291.0,0.2493
1292.0,0.2352
1293.0,0.2447
1294.0,0.243
1295.0,0.2421
1296.0,0.2318
1297.0,0.2197
1298.0,0.2355
1299.0,0.2449
1300.0,0.209
1301.0,0.2151
1302.0,0.2347
1303.0,0.206
1304.0,0.1773
1305.0,0.23
1306.0,0.2301
1307.0,0.1805
1308.0,0.2061
1309.0,0.2285
1310.0,0.1772
1311.0,0.198
1312.0,0.1928
1313.0,0.1894
1314.0,0.17
1315.0,0.1681
1316.0,0.1951
1317.0,0.185
1318.0,0.2004
1319.0,0.1584
1320.0,0.1531
1321.0,0.1777
1322.0,0.1797
1323.0,0.1366
1324.0,0.1553
1325.0,0.1924
1326.0,0.166
1327.0,0.1585
1328.0,0.1371
1329.0,0.104
1330.0,0.1349
1331.0,0.08263
1332.0,0.08492
1333.0,0.1179
1334.0,0.09932
1335.0,0.1361
1336.0,0.1082
1337.0,0.09602
1338.0,0.1039
1339.0,0.1033
1340.0,0.1001
1341.0,0.09849
1342.0,0.1034
1343.0,0.07138
1344.0,0.04267
1345.0,0.06146
1346.0,0.03138
1347.0,0.03205
1348.0,0.002237
1349.0,0.007872
1350.0,0.008056
1351.0,0.002092
1352.0,0.0006074
1353.0,3.36e-05
1354.0,0.00011
1355.0,1.048e-06
1356.0,1.652e-05
1357.0,2.511e-05
1358.0,1.233e-06
1359.0,1.762e-07
1360.0,5.899e-07
1361.0,8.615e-10
1362.0,2.649e-12
1363.0,8.294e-07
1364.0,3.462e-07
1365.0,1.076e-12
1366.0,3.508e-06
1367.0,1.407e-06
1368.0,1.111e-14
1369.0,1.304e-07
1370.0,6.784e-08
1371.0,4.116e-09
1372.0,7.742e-07
1373.0,1.437e-05
1374.0,6.309e-05
1375.0,0.000115
1376.0,9.865e-05
1377.0,4.579e-05
1378.0,0.0004371
1379.0,1.929e-05
1380.0,2.878e-05
1381.0,7.795e-07
1382.0,7.088e-07
1383.0,1.116e-08
1384.0,1.506e-07
1385.0,6.322e-07
1386.0,6.554e-07
1387.0,6.777e-05
1388.0,1.343e-06
1389.0,0.0002161
1390.0,0.0001861
1391.0,0.0001257
1392.0,8.343e-06
1393.0,4.293e-05
1394.0,2.433e-05
1395.0,1.915e-07
1396.0,1.198e-09
1397.0,1.75e-05
1398.0,0.0004941
1399.0,0.0003131
1400.0,5.552e-10
1401.0,2.102e-09
1402.0,0.0008086
1403.0,0.001031
1404.0,0.0003161
1405.0,9.76e-08
1406.0,0.0008421
1407.0,7.322e-05
1408.0,0.0006861
1409.0,0.0002398
1410.0,0.0001872
1411.0,0.000904
1412.0,0.001197
1413.0,0.01172
1414.0,0.000147
1415.0,7.193e-05
1416.0,0.01881
1417.0,0.005804
1418.0,0.006628
1419.0,0.001034
1420.0,0.004059
1421.0,0.00439
1422.0,0.02453
1423.0,0.00478
1424.0,0.008935
1425.0,0.01319
1426.0,0.01489
1427.0,0.0272
1428.0,0.002112
1429.0,0.02041
1430.0,0.03464
1431.0,0.03802
1432.0,0.001666
1433.0,0.02421
1434.0,0.01233
1435.0,0.01238
1436.0,0.02382
1437.0,0.01825
1438.0,0.007724
1439.0,0.03237
1440.0,0.02424
1441.0,0.01849
1442.0,0.02051
1443.0,0.02575
1444.0,0.03568
1445.0,0.0279
1446.0,0.01254
