interpolation:linear
wavelength,value
280.0,6.087000000000001e-20
280.5,1.686e-18
281.0,6.507e-18
281.5,4.77e-19
282.0,2.155e-18
282.5,6.162e-18
283.0,2.063e-17
283.5,3.41e-17
284.0,5.374e-16
284.5,1.515e-15
285.0,3.15e-15
285.5,1.984e-14
286.0,8.544e-14
286.5,4.198e-13
287.0,1.263e-12
287.5,5.077e-12
288.0,1.498e-11
288.5,5.979e-11
289.0,2.022e-10
289.5,7.656e-10
290.0,2.523e-09
290.5,5.914e-09
291.0,1.487e-08
291.5,5.159e-08
292.0,1.367e-07
292.5,2.143e-07
293.0,5.289e-07
293.5,1.565e-06
294.0,2.84e-06
294.5,3.687e-06
295.0,7.145e-06
295.5,1.697e-05
296.0,3.205e-05
296.5,4.384e-05
297.0,5.822e-05
297.5,0.0001516
298.0,0.0002328
298.5,0.0002296
299.0,0.000496
299.5,0.0007932
300.0,0.0008547
300.5,0.001211
301.0,0.002114
301.5,0.00326
302.0,0.002742
302.5,0.005155
303.0,0.008806
303.5,0.01074
304.0,0.009863
304.5,0.01388
305.0,0.0194
305.5,0.02112
306.0,0.02005
306.5,0.02417
307.0,0.03342
307.5,0.04157
308.0,0.04343
308.5,0.04966
309.0,0.04778
309.5,0.05225
310.0,0.05139
310.5,0.08236
311.0,0.1016
311.5,0.09729
312.0,0.09361
312.5,0.111
313.0,0.1188
313.5,0.1168
314.0,0.1416
314.5,0.1205
315.0,0.1571
315.5,0.1341
316.0,0.1132
316.5,0.158
317.0,0.1962
317.5,0.2058
318.0,0.1574
318.5,0.1882
319.0,0.2191
319.5,0.1841
320.0,0.2235
320.5,0.2691
321.0,0.2315
321.5,0.2211
322.0,0.2445
322.5,0.2123
323.0,0.2063
323.5,0.2478
324.0,0.288
324.5,0.2953
325.0,0.2584
325.5,0.3258
326.0,0.3959
326.5,0.3913
327.0,0.3918
327.5,0.3806
328.0,0.3448
328.5,0.3548
329.0,0.4178
329.5,0.4719
330.0,0.4779
330.5,0.3873
331.0,0.3962
331.5,0.3989
332.0,0.425
332.5,0.4177
333.0,0.418
333.5,0.3821
334.0,0.392
334.5,0.4471
335.0,0.4173
335.5,0.4874
336.0,0.3372
336.5,0.3961
337.0,0.3265
337.5,0.4067
338.0,0.3933
338.5,0.4538
339.0,0.449
339.5,0.4319
340.0,0.5076
340.5,0.4571
341.0,0.4459
341.5,0.4092
342.0,0.4889
342.5,0.4573
343.0,0.503
343.5,0.4737
344.0,0.3499
344.5,0.3535
345.0,0.4675
345.5,0.4772
346.0,0.4054
346.5,0.4589
347.0,0.4927
347.5,0.3984
348.0,0.454
348.5,0.4537
349.0,0.4207
349.5,0.4165
350.0,0.5151
350.5,0.5433
351.0,0.4853
351.5,0.4718
352.0,0.5066
352.5,0.3952
353.0,0.4976
353.5,0.532
354.0,0.5522
354.5,0.56
355.0,0.5582
355.5,0.5041
356.0,0.5274
356.5,0.4503
357.0,0.3721
357.5,0.4555
358.0,0.3609
358.5,0.3084
359.0,0.4314
359.5,0.5498
360.0,0.5828
360.5,0.4658
361.0,0.4245
361.5,0.4887
362.0,0.4225
362.5,0.5846
363.0,0.5249
363.5,0.4834
364.0,0.5911
364.5,0.5053
365.0,0.5146
365.5,0.6458
366.0,0.6841
366.5,0.6427
367.0,0.6258
367.5,0.6494
368.0,0.5683
368.5,0.5734
369.0,0.6192
369.5,0.6599
370.0,0.7034
370.5,0.5459
371.0,0.5832
371.5,0.7297
372.0,0.4843
372.5,0.5806
373.0,0.5906
373.5,0.3842
374.0,0.5583
374.5,0.4623
375.0,0.4494
375.5,0.6709
376.0,0.5562
376.5,0.5764
377.0,0.6102
377.5,0.7138
378.0,0.7738
378.5,0.7314
379.0,0.6036
379.5,0.5514
380.0,0.5733
380.5,0.6943
381.0,0.6957
381.5,0.5514
382.0,0.4897
382.5,0.4174
383.0,0.3864
383.5,0.3721
384.0,0.4105
384.5,0.6037
385.0,0.5987
385.5,0.5575
386.0,0.4775
386.5,0.6271
387.0,0.5211
387.5,0.5853
388.0,0.5404
388.5,0.5342
389.0,0.5766
389.5,0.6983
390.0,0.7008
390.5,0.645
391.0,0.7592
391.5,0.7743
392.0,0.6522
392.5,0.5838
393.0,0.3248
393.5,0.2361
394.0,0.4805
394.5,0.6108
395.0,0.7454
395.5,0.7572
396.0,0.6565
396.5,0.3837
397.0,0.288
397.5,0.5856
398.0,0.8201
398.5,0.8477
399.0,0.9178
399.5,0.9148
400.0,0.95
401.0,0.9654
402.0,1.018
403.0,0.9672
404.0,0.9523
405.0,0.9521
406.0,0.9365
407.0,0.9212
408.0,0.9572
409.0,1.024
410.0,0.895
411.0,0.9693
412.0,1.041
413.0,1.015
414.0,1.027
415.0,1.03
416.0,1.048
417.0,1.022
418.0,1.003
419.0,1.016
420.0,1.011
421.0,1.058
422.0,1.005
423.0,0.9821
424.0,1.039
425.0,1.037
426.0,1.009
427.0,0.9905
428.0,0.9648
429.0,0.9136
430.0,0.7994
431.0,0.7924
432.0,1.023
433.0,1.028
434.0,0.9549
435.0,0.9973
436.0,1.123
437.0,1.108
438.0,1.009
439.0,1.044
440.0,1.077
441.0,1.115
442.0,1.196
443.0,1.165
444.0,1.19
445.0,1.165
446.0,1.111
447.0,1.201
448.0,1.22
449.0,1.224
450.0,1.258
451.0,1.304
452.0,1.256
453.0,1.182
454.0,1.233
455.0,1.241
456.0,1.27
457.0,1.291
458.0,1.247
459.0,1.241
460.0,1.244
461.0,1.273
462.0,1.282
463.0,1.273
464.0,1.252
465.0,1.235
466.0,1.247
467.0,1.225
468.0,1.239
469.0,1.245
470.0,1.206
471.0,1.204
472.0,1.269
473.0,1.252
474.0,1.254
475.0,1.266
476.0,1.228
477.0,1.232
478.0,1.266
479.0,1.258
480.0,1.26
481.0,1.283
482.0,1.289
483.0,1.273
484.0,1.247
485.0,1.187
486.0,1.038
487.0,1.087
488.0,1.193
489.0,1.197
490.0,1.259
491.0,1.237
492.0,1.168
493.0,1.206
494.0,1.218
495.0,1.228
496.0,1.236
497.0,1.255
498.0,1.196
499.0,1.212
500.0,1.177
501.0,1.156
502.0,1.14
503.0,1.187
504.0,1.159
505.0,1.199
506.0,1.238
507.0,1.178
508.0,1.14
509.0,1.172
510.0,1.165
511.0,1.196
512.0,1.209
513.0,1.144
514.0,1.136
515.0,1.124
516.0,1.122
517.0,0.9966
518.0,1.048
519.0,1.099
520.0,1.139
521.0,1.15
522.0,1.151
523.0,1.131
524.0,1.171
525.0,1.186
526.0,1.133
527.0,1.068
528.0,1.13
529.0,1.191
530.0,1.174
531.0,1.192
532.0,1.151
533.0,1.117
534.0,1.15
535.0,1.175
536.0,1.185
537.0,1.138
538.0,1.158
539.0,1.149
540.0,1.101
541.0,1.109
542.0,1.144
543.0,1.132
544.0,1.152
545.0,1.148
546.0,1.154
547.0,1.153
548.0,1.139
549.0,1.142
550.0,1.156
551.0,1.142
552.0,1.15
553.0,1.129
554.0,1.156
555.0,1.159
556.0,1.144
557.0,1.108
558.0,1.1
559.0,1.08
560.0,1.094
561.0,1.108
562.0,1.1
563.0,1.131
564.0,1.101
565.0,1.091
566.0,1.076
567.0,1.096
568.0,1.088
569.0,1.064
570.0,1.063
571.0,1.056
572.0,1.083
573.0,1.095
574.0,1.092
575.0,1.072
576.0,1.062
577.0,1.073
578.0,1.057
579.0,1.06
580.0,1.079
581.0,1.083
582.0,1.103
583.0,1.104
584.0,1.114
585.0,1.086
586.0,1.064
587.0,1.088
588.0,1.064
589.0,0.9475
590.0,0.9904
591.0,1.045
592.0,1.034
593.0,1.047
594.0,1.04
595.0,1.016
596.0,1.052
597.0,1.042
598.0,1.038
599.0,1.038
600.0,1.039
601.0,1.03
602.0,1.023
603.0,1.039
604.0,1.056
605.0,1.05
606.0,1.046
607.0,1.056
608.0,1.044
609.0,1.045
610.0,1.037
611.0,1.042
612.0,1.039
613.0,1.026
614.0,1.011
615.0,1.033
616.0,0.9988
617.0,0.9965
618.0,1.035
619.0,1.024
620.0,1.031
621.0,1.032
622.0,1.02
623.0,1.005
624.0,0.9874
625.0,0.9852
626.0,0.9999
627.0,1.012
628.0,0.9557
629.0,0.9917
630.0,0.9692
631.0,0.9874
632.0,0.975
633.0,1.003
634.0,0.9922
635.0,1.007
636.0,0.9931
637.0,1.009
638.0,1.018
639.0,1.006
640.0,0.9957
641.0,0.9948
642.0,0.9898
643.0,1.003
644.0,0.9994
645.0,1.001
646.0,0.9792
647.0,0.9704
648.0,0.9717
649.0,0.953
650.0,0.954
651.0,0.9945
652.0,0.9573
653.0,0.9812
654.0,0.9699
655.0,0.9359
656.0,0.828
657.0,0.8501
658.0,0.9516
659.0,0.9579
660.0,0.9616
661.0,0.9683
662.0,0.971
663.0,0.9515
664.0,0.9617
665.0,0.9617
666.0,0.9621
667.0,0.9608
668.0,0.9608
669.0,0.9755
670.0,0.9711
671.0,0.9707
672.0,0.9622
673.0,0.9765
674.0,0.9727
675.0,0.9637
676.0,0.9702
677.0,0.9604
678.0,0.963
679.0,0.9474
680.0,0.9548
681.0,0.9485
682.0,0.9473
683.0,0.9454
684.0,0.9407
685.0,0.9486
686.0,0.9432
687.0,0.6727
688.0,0.7659
689.0,0.7679
690.0,0.798
691.0,0.8315
692.0,0.8552
693.0,0.8489
694.0,0.8419
695.0,0.8712
696.0,0.8724
697.0,0.9186
698.0,0.9045
699.0,0.8875
700.0,0.8769
701.0,0.8694
702.0,0.8737
703.0,0.8753
704.0,0.9005
705.0,0.9019
706.0,0.9
707.0,0.9003
708.0,0.9023
709.0,0.9019
710.0,0.9027
711.0,0.9009
712.0,0.8974
713.0,0.8891
714.0,0.8923
715.0,0.8658
716.0,0.8668
717.0,0.7689
718.0,0.7092
719.0,0.6515
720.0,0.6836
721.0,0.744
722.0,0.8396
723.0,0.7877
724.0,0.7165
725.0,0.7074
726.0,0.7392
727.0,0.7458
728.0,0.7064
729.0,0.7266
730.0,0.7688
731.0,0.7375
732.0,0.7824
733.0,0.8219
734.0,0.8398
735.0,0.8233
736.0,0.8221
737.0,0.8256
738.0,0.8342
739.0,0.8179
740.0,0.8379
741.0,0.8288
742.0,0.8289
743.0,0.8497
744.0,0.8469
745.0,0.8467
746.0,0.8505
747.0,0.8523
748.0,0.8505
749.0,0.8407
750.0,0.8402
751.0,0.8317
752.0,0.8352
753.0,0.8394
754.0,0.8413
755.0,0.8365
756.0,0.8361
757.0,0.8373
758.0,0.827
759.0,0.8126
760.0,0.1825
761.0,0.1065
762.0,0.4631
763.0,0.2601
764.0,0.3654
765.0,0.4633
766.0,0.5461
767.0,0.6669
768.0,0.7523
769.0,0.7642
770.0,0.7859
771.0,0.7903
772.0,0.7914
773.0,0.7968
774.0,0.7928
775.0,0.7867
776.0,0.7962
777.0,0.7857
778.0,0.781
779.0,0.7816
780.0,0.7772
781.0,0.778
782.0,0.7828
783.0,0.7691
784.0,0.7727
785.0,0.7672
786.0,0.7757
787.0,0.764
788.0,0.7553
789.0,0.7553
790.0,0.7378
791.0,0.7417
792.0,0.7359
793.0,0.7243
794.0,0.7339
795.0,0.747
796.0,0.7276
797.0,0.7286
798.0,0.7465
799.0,0.7424
800.0,0.7304
801.0,0.7289
802.0,0.7267
803.0,0.7216
804.0,0.7222
805.0,0.7189
806.0,0.7374
807.0,0.7289
808.0,0.7294
809.0,0.717
810.0,0.712
811.0,0.7147
812.0,0.6967
813.0,0.6838
814.0,0.61
815.0,0.6059
816.0,0.5652
817.0,0.5745
818.0,0.5549
819.0,0.613
820.0,0.5802
821.0,0.6681
822.0,0.6507
823.0,0.4586
824.0,0.6352
825.0,0.657
826.0,0.6351
827.0,0.667
828.0,0.5746
829.0,0.6306
830.0,0.6233
831.0,0.6252
832.0,0.6077
833.0,0.6418
834.0,0.6221
835.0,0.677
836.0,0.652
837.0,0.6787
838.0,0.6593
839.0,0.668
840.0,0.6822
841.0,0.6733
842.0,0.6736
843.0,0.672
844.0,0.6633
845.0,0.6848
846.0,0.6816
847.0,0.6685
848.0,0.6649
849.0,0.646
850.0,0.6189
851.0,0.6558
852.0,0.6509
853.0,0.6261
854.0,0.541
855.0,0.5938
856.0,0.6492
857.0,0.6633
858.0,0.6586
859.0,0.6589
860.0,0.6599
861.0,0.6564
862.0,0.6666
863.0,0.6824
864.0,0.6482
865.0,0.6425
866.0,0.5777
867.0,0.6029
868.0,0.656
869.0,0.6424
870.0,0.6607
871.0,0.6517
872.0,0.6494
873.0,0.6481
874.0,0.6403
875.0,0.6274
876.0,0.6339
877.0,0.6403
878.0,0.6473
879.0,0.6374
880.0,0.6237
881.0,0.6146
882.0,0.628
883.0,0.6297
884.0,0.6269
885.0,0.6317
886.0,0.6029
887.0,0.6086
888.0,0.618
889.0,0.6243
890.0,0.6199
891.0,0.6184
892.0,0.6017
893.0,0.5843
894.0,0.5665
895.0,0.5388
896.0,0.5091
897.0,0.4421
898.0,0.4797
899.0,0.3706
900.0,0.4882
901.0,0.3883
902.0,0.448
903.0,0.4549
904.0,0.5622
905.0,0.5444
906.0,0.5107
907.0,0.422
908.0,0.4294
909.0,0.4618
910.0,0.4144
911.0,0.438
912.0,0.4565
913.0,0.4208
914.0,0.4161
915.0,0.4506
916.0,0.3832
917.0,0.4797
918.0,0.3931
919.0,0.4869
920.0,0.4888
921.0,0.5077
922.0,0.4581
923.0,0.4902
924.0,0.4698
925.0,0.4597
926.0,0.4648
927.0,0.5162
928.0,0.3903
929.0,0.3594
930.0,0.2873
931.0,0.2714
932.0,0.2004
933.0,0.1656
934.0,0.09646
935.0,0.1672
936.0,0.1079
937.0,0.1099
938.0,0.1337
939.0,0.263
940.0,0.313
941.0,0.2409
942.0,0.2759
943.0,0.1851
944.0,0.1917
945.0,0.2475
946.0,0.1308
947.0,0.2499
948.0,0.1843
949.0,0.3297
950.0,0.09918
951.0,0.3238
952.0,0.1803
953.0,0.2287
954.0,0.2758
955.0,0.2308
956.0,0.2217
957.0,0.1813
958.0,0.3077
959.0,0.2494
960.0,0.2795
961.0,0.3098
962.0,0.2936
963.0,0.3352
964.0,0.3082
965.0,0.3335
966.0,0.3344
967.0,0.3333
968.0,0.4353
969.0,0.4556
970.0,0.42
971.0,0.4757
972.0,0.456
973.0,0.4021
974.0,0.3824
975.0,0.3949
976.0,0.3777
977.0,0.4245
978.0,0.4055
979.0,0.4231
980.0,0.3988
981.0,0.4728
982.0,0.4539
983.0,0.4368
984.0,0.4851
985.0,0.4521
986.0,0.4924
987.0,0.4841
988.0,0.4832
989.0,0.4901
990.0,0.4802
991.0,0.4917
992.0,0.4945
993.0,0.4848
994.0,0.4942
995.0,0.4934
996.0,0.4914
997.0,0.492
998.0,0.4898
999.0,0.4879
1000.0,0.4848
1001.0,0.4905
1002.0,0.4782
1003.0,0.4819
1004.0,0.4704
1005.0,0.4528
1006.0,0.4707
1007.0,0.4805
1008.0,0.4781
1009.0,0.4758
1010.0,0.474
1011.0,0.4781
1012.0,0.4742
1013.0,0.4768
1014.0,0.4735
1015.0,0.4704
1016.0,0.4683
1017.0,0.4695
1018.0,0.4676
1019.0,0.4581
1020.0,0.4652
1021.0,0.4645
1022.0,0.4611
1023.0,0.466
1024.0,0.4604
1025.0,0.4655
1026.0,0.4636
1027.0,0.4625
1028.0,0.4616
1029.0,0.4562
1030.0,0.4592
1031.0,0.4574
1032.0,0.456
1033.0,0.4491
1034.0,0.4491
1035.0,0.4505
1036.0,0.4529
1037.0,0.4456
1038.0,0.4475
1039.0,0.4473
1040.0,0.4455
1041.0,0.4473
1042.0,0.4442
1043.0,0.4428
1044.0,0.4444
1045.0,0.4384
1046.0,0.4336
1047.0,0.4375
1048.0,0.44
1049.0,0.4384
1050.0,0.4364
1051.0,0.4359
1052.0,0.4341
1053.0,0.4308
1054.0,0.4317
1055.0,0.4321
1056.0,0.4306
1057.0,0.4293
1058.0,0.4189
1059.0,0.4194
1060.0,0.4188
1061.0,0.4183
1062.0,0.4206
1063.0,0.4165
1064.0,0.4214
1065.0,0.4185
1066.0,0.4101
1067.0,0.4155
1068.0,0.4065
1069.0,0.3939
1070.0,0.4074
1071.0,0.4133
1072.0,0.4088
1073.0,0.4029
1074.0,0.4128
1075.0,0.3935
1076.0,0.4126
1077.0,0.4059
1078.0,0.3985
1079.0,0.4058
1080.0,0.3997
1081.0,0.3875
1082.0,0.3926
1083.0,0.3935
1084.0,0.3869
1085.0,0.4005
1086.0,0.3675
1087.0,0.3778
1088.0,0.3933
1089.0,0.3825
1090.0,0.375
1091.0,0.3924
1092.0,0.3911
1093.0,0.3355
1094.0,0.3583
1095.0,0.3489
1096.0,0.3353
1097.0,0.382
1098.0,0.3304
1099.0,0.3441
1100.0,0.3216
1101.0,0.3251
1102.0,0.3115
1103.0,0.3093
1104.0,0.3096
1105.0,0.3366
1106.0,0.264
1107.0,0.3209
1108.0,0.276
1109.0,0.2757
1110.0,0.3186
1111.0,0.2214
1112.0,0.2733
1113.0,0.1795
1114.0,0.2
1115.0,0.166
1116.0,0.1359
1117.0,0.05368
1118.0,0.1466
1119.0,0.07571
1120.0,0.09542
1121.0,0.1248
1122.0,0.05509
1123.0,0.08612
1124.0,0.07273
1125.0,0.09417
1126.0,0.03535
1127.0,0.106
1128.0,0.06618
1129.0,0.0698
1130.0,0.04711
1131.0,0.1945
1132.0,0.1538
1133.0,0.101
1134.0,0.02794
1135.0,0.01036
1136.0,0.08546
1137.0,0.1921
1138.0,0.1361
1139.0,0.1964
1140.0,0.1666
1141.0,0.1293
1142.0,0.1474
1143.0,0.2065
1144.0,0.07547
1145.0,0.09727
1146.0,0.1049
1147.0,0.03961
1148.0,0.1788
1149.0,0.1448
1150.0,0.08096
1151.0,0.1351
1152.0,0.1639
1153.0,0.1579
1154.0,0.09479
1155.0,0.2049
1156.0,0.1858
1157.0,0.2066
1158.0,0.2043
1159.0,0.2186
1160.0,0.1889
1161.0,0.2287
1162.0,0.2302
1163.0,0.304
1164.0,0.2633
1165.0,0.2508
1166.0,0.2474
1167.0,0.2681
1168.0,0.2716
1169.0,0.2772
1170.0,0.2991
1171.0,0.292
1172.0,0.2961
1173.0,0.2985
1174.0,0.2189
1175.0,0.2907
1176.0,0.3167
1177.0,0.3059
1178.0,0.2341
1179.0,0.3191
1180.0,0.288
1181.0,0.2969
1182.0,0.2097
1183.0,0.2917
1184.0,0.275
1185.0,0.2667
1186.0,0.3115
1187.0,0.2982
1188.0,0.2138
1189.0,0.2781
1190.0,0.3043
1191.0,0.2916
1192.0,0.3083
1193.0,0.2964
1194.0,0.3048
1195.0,0.2901
1196.0,0.2806
1197.0,0.304
1198.0,0.2795
1199.0,0.2419
1200.0,0.2928
1201.0,0.2838
1202.0,0.2813
1203.0,0.2791
1204.0,0.2463
1205.0,0.2866
1206.0,0.3143
1207.0,0.281
1208.0,0.2753
1209.0,0.2807
1210.0,0.2914
1211.0,0.2792
1212.0,0.2777
1213.0,0.3048
1214.0,0.2834
1215.0,0.2785
1216.0,0.3038
1217.0,0.2966
1218.0,0.3014
1219.0,0.2981
1220.0,0.3016
1221.0,0.3041
1222.0,0.2967
1223.0,0.2943
1224.0,0.2931
1225.0,0.3022
1226.0,0.3037
1227.0,0.2823
1228.0,0.3048
1229.0,0.3037
1230.0,0.299
1231.0,0.3061
1232.0,0.3043
1233.0,0.2956
1234.0,0.3055
1235.0,0.3038
1236.0,0.3058
1237.0,0.3022
1238.0,0.3048
1239.0,0.3009
1240.0,0.3019
1241.0,0.3009
1242.0,0.2999
1243.0,0.2974
1244.0,0.2997
1245.0,0.3009
1246.0,0.2991
1247.0,0.2981
1248.0,0.2981
1249.0,0.2988
1250.0,0.2971
1251.0,0.2936
1252.0,0.2933
1253.0,0.2915
1254.0,0.2891
1255.0,0.2932
1256.0,0.286
1257.0,0.2847
1258.0,0.2891
1259.0,0.2804
1260.0,0.2816
1261.0,0.268
1262.0,0.2611
1263.0,0.2616
1264.0,0.2441
1265.0,0.2599
1266.0,0.2516
1267.0,0.255
1268.0,0.2435
1269.0,0.1628
1270.0,0.2545
1271.0,0.2668
1272.0,0.2674
1273.0,0.2648
1274.0,0.2654
1275.0,0.2688
1276.0,0.271
1277.0,0.2723
1278.0,0.2766
1279.0,0.2742
1280.0,0.2707
1281.0,0.2579
1282.0,0.2478
1283.0,0.267
1284.0,0.2736
1285.0,0.2753
1286.0,0.2786
1287.0,0.275
1288.0,0.2747
1289.0,0.2674
1290.0,0.2722
1291.0,0.2758
1292.0,0.2616
1293.0,0.271
1294.0,0.2693
1295.0,0.2686
1296.0,0.2581
1297.0,0.2454
1298.0,0.2616
1299.0,0.2711
1300.0,0.2339
1301.0,0.2402
1302.0,0.2606
1303.0,0.2304
1304.0,0.2006
1305.0,0.2556
1306.0,0.2559
1307.0,0.2035
1308.0,0.2301
1309.0,0.2543
1310.0,0.1998
1311.0,0.2215
1312.0,0.2162
1313.0,0.2126
1314.0,0.1918
1315.0,0.1902
1316.0,0.2187
1317.0,0.2076
1318.0,0.224
1319.0,0.1799
1320.0,0.1733
1321.0,0.2002
1322.0,0.2029
1323.0,0.1566
1324.0,0.1764
1325.0,0.2158
1326.0,0.1877
1327.0,0.1797
1328.0,0.1562
1329.0,0.1207
1330.0,0.1554
1331.0,0.0978
1332.0,0.09962
1333.0,0.1376
1334.0,0.1148
1335.0,0.156
1336.0,0.1254
1337.0,0.1121
1338.0,0.1212
1339.0,0.1201
1340.0,0.1158
1341.0,0.1154
1342.0,0.121
1343.0,0.08687
1344.0,0.05183
1345.0,0.07429
1346.0,0.04019
1347.0,0.04142
1348.0,0.003338
1349.0,0.01125
1350.0,0.01117
1351.0,0.003295
1352.0,0.00109
1353.0,7.041e-05
1354.0,0.0002094
1355.0,2.712e-06
1356.0,3.507e-05
1357.0,5.303e-05
1358.0,3.151e-06
1359.0,5.633e-07
1360.0,1.633e-06
1361.0,3.878e-09
1362.0,1.486e-11
1363.0,2.422e-06
1364.0,1.037e-06
1365.0,7.781e-12
1366.0,9.636e-06
1367.0,3.763e-06
1368.0,1.336e-13
1369.0,3.971e-07
1370.0,2.268e-07
1371.0,1.559e-08
1372.0,2.075e-06
1373.0,3.282e-05
1374.0,0.0001296
1375.0,0.0002352
1376.0,0.0001869
1377.0,8.9e-05
1378.0,0.0008023
1379.0,3.775e-05
1380.0,5.981e-05
1381.0,1.746e-06
1382.0,1.95e-06
1383.0,3.393e-08
1384.0,4.753e-07
1385.0,1.57e-06
1386.0,1.92e-06
1387.0,0.000147
1388.0,2.986e-06
1389.0,0.0004193
1390.0,0.0003606
1391.0,0.0002503
1392.0,1.74e-05
1393.0,8.42e-05
1394.0,5.613e-05
1395.0,5.075e-07
1396.0,5.061e-09
1397.0,3.587e-05
1398.0,0.0009145
1399.0,0.0005797
1400.0,2.653e-09
1401.0,8.476e-09
1402.0,0.001304
1403.0,0.001703
1404.0,0.0005284
1405.0,2.805e-07
1406.0,0.001466
1407.0,0.0001253
1408.0,0.001187
1409.0,0.0004494
1410.0,0.000336
1411.0,0.001487
1412.0,0.001896
1413.0,0.01642
1414.0,0.0002616
1415.0,0.0001332
1416.0,0.02467
1417.0,0.008233
1418.0,0.009446
1419.0,0.001504
1420.0,0.005811
1421.0,0.00632
1422.0,0.03199
1423.0,0.006406
1424.0,0.01182
1425.0,0.01766
1426.0,0.01935
1427.0,0.03399
1428.0,0.003186
1429.0,0.02613
1430.0,0.04279
1431.0,0.04658
1432.0,0.002529
1433.0,0.03022
1434.0,0.01567
1435.0,0.01669
1436.0,0.0306
1437.0,0.02345
1438.0,0.01035
1439.0,0.0409
1440.0,0.03071
1441.0,0.02416
1442.0,0.02666
1443.0,0.03233
1444.0,0.04428
1445.0,0.03557
1446.0,0.01628
1447.0,0.02561
1448.0,0.0802
1449.0,0.07052
1450.0,0.01895
1451.0,0.00783
1452.0,0.04329
1453.0,0.05634
