interpolation:linear
wavelength,value
280.0,5.595e-23
280.5,1.879e-21
281.0,1.0170000000000001e-20
281.5,3.303e-19
282.0,5.004e-19
282.5,1.171e-18
283.0,3.622e-18
283.5,5.882e-18
284.0,9.638e-17
284.5,2.827e-16
285.0,6.655e-16
285.5,2.891e-15
286.0,1.139e-14
286.5,4.965e-14
287.0,1.409e-13
287.5,5.387e-13
288.0,1.766e-12
288.5,5.048e-12
289.0,1.304e-11
289.5,3.867e-11
290.0,1.067e-10
290.5,2.173e-10
291.0,4.668e-10
291.5,1.343e-09
292.0,2.75e-09
292.5,3.826e-09
293.0,8.127e-09
293.5,1.954e-08
294.0,3.046e-08
294.5,3.791e-08
295.0,6.377e-08
295.5,1.083e-07
296.0,2.034e-07
296.5,2.765e-07
297.0,3.647e-07
297.5,9.392e-07
298.0,1.425e-06
298.5,1.389e-06
299.0,2.963e-06
299.5,4.626e-06
300.0,4.901e-06
300.5,6.819e-06
301.0,1.152e-05
301.5,1.718e-05
302.0,1.417e-05
302.5,2.715e-05
303.0,4.75e-05
303.5,5.935e-05
304.0,5.674e-05
304.5,8.903e-05
305.0,0.0001459
305.5,0.0001761
306.0,0.000174
306.5,0.0002245
307.0,0.000362
307.5,0.0005236
308.0,0.0005604
308.5,0.0006909
309.0,0.000779
309.5,0.001083
310.0,0.001191
310.5,0.002016
311.0,0.002724
311.5,0.002714
312.0,0.003185
312.5,0.004311
313.0,0.004943
313.5,0.004555
314.0,0.006472
314.5,0.006804
315.0,0.009214
315.5,0.007091
316.0,0.007112
316.5,0.01151
317.0,0.01425
317.5,0.01433
318.0,0.01213
318.5,0.01762
319.0,0.02263
319.5,0.01623
320.0,0.01922
320.5,0.02825
321.0,0.02909
321.5,0.02829
322.0,0.02579
322.5,0.02261
323.0,0.02492
323.5,0.03536
324.0,0.04203
324.5,0.04069
325.0,0.03188
325.5,0.04453
326.0,0.05871
326.5,0.06238
327.0,0.06081
327.5,0.0571
328.0,0.0469
328.5,0.05431
329.0,0.07012
329.5,0.08142
330.0,0.08062
330.5,0.06087
331.0,0.06079
331.5,0.06452
332.0,0.07417
332.5,0.07546
333.0,0.07402
333.5,0.06398
334.0,0.06505
334.5,0.07908
335.0,0.07658
335.5,0.09071
336.0,0.06277
336.5,0.07142
337.0,0.05733
337.5,0.07074
338.0,0.0721
338.5,0.08484
339.0,0.08423
339.5,0.0809
340.0,0.09336
340.5,0.08453
341.0,0.08373
341.5,0.0773
342.0,0.09254
342.5,0.08674
343.0,0.09509
343.5,0.08935
344.0,0.06502
344.5,0.06648
345.0,0.08854
345.5,0.09068
346.0,0.07724
346.5,0.0876
347.0,0.0938
347.5,0.07579
348.0,0.08674
348.5,0.08691
349.0,0.08075
349.5,0.07996
350.0,0.09898
350.5,0.1044
351.0,0.09316
351.5,0.09017
352.0,0.09717
352.5,0.07604
353.0,0.09598
353.5,0.1028
354.0,0.1068
354.5,0.1083
355.0,0.108
355.5,0.09764
356.0,0.1023
356.5,0.08736
357.0,0.07219
357.5,0.08843
358.0,0.07013
358.5,0.05997
359.0,0.08387
359.5,0.1068
360.0,0.1133
360.5,0.09064
361.0,0.08273
361.5,0.0954
362.0,0.08261
362.5,0.1145
363.0,0.1029
363.5,0.09489
364.0,0.1162
364.5,0.09933
365.0,0.1012
365.5,0.1271
366.0,0.1348
366.5,0.1268
367.0,0.1236
367.5,0.1284
368.0,0.1124
368.5,0.1135
369.0,0.1227
369.5,0.1309
370.0,0.1396
370.5,0.1085
371.0,0.116
371.5,0.1452
372.0,0.09644
372.5,0.1157
373.0,0.1178
373.5,0.07673
374.0,0.1116
374.5,0.0925
375.0,0.08998
375.5,0.1344
376.0,0.1115
376.5,0.1156
377.0,0.1225
377.5,0.1435
378.0,0.1556
378.5,0.1471
379.0,0.1215
379.5,0.111
380.0,0.1155
380.5,0.14
381.0,0.1405
381.5,0.1115
382.0,0.09916
382.5,0.08464
383.0,0.07845
383.5,0.07564
384.0,0.08351
384.5,0.123
385.0,0.122
385.5,0.1138
386.0,0.09755
386.5,0.1283
387.0,0.1067
387.5,0.1199
388.0,0.1108
388.5,0.1097
389.0,0.1185
389.5,0.1436
390.0,0.1443
390.5,0.1329
391.0,0.1566
391.5,0.1598
392.0,0.1347
392.5,0.1208
393.0,0.06728
393.5,0.04896
394.0,0.09971
394.5,0.1269
395.0,0.155
395.5,0.1575
396.0,0.1367
396.5,0.08003
397.0,0.06012
397.5,0.1224
398.0,0.1715
398.5,0.1774
399.0,0.1924
399.5,0.1919
400.0,0.1994
401.0,0.1997
402.0,0.2112
403.0,0.2011
404.0,0.1983
405.0,0.1986
406.0,0.1958
407.0,0.1931
408.0,0.2008
409.0,0.2153
410.0,0.1885
411.0,0.2046
412.0,0.2204
413.0,0.2151
414.0,0.2182
415.0,0.2193
416.0,0.2236
417.0,0.2184
418.0,0.2147
419.0,0.218
420.0,0.2174
421.0,0.2278
422.0,0.2169
423.0,0.2122
424.0,0.2246
425.0,0.2246
426.0,0.2194
427.0,0.2157
428.0,0.2104
429.0,0.1999
430.0,0.1753
431.0,0.1738
432.0,0.2249
433.0,0.2265
434.0,0.2105
435.0,0.2201
436.0,0.2486
437.0,0.2459
438.0,0.2243
439.0,0.2316
440.0,0.2394
441.0,0.2486
442.0,0.2669
443.0,0.2599
444.0,0.2661
445.0,0.2605
446.0,0.2495
447.0,0.2706
448.0,0.2745
449.0,0.2765
450.0,0.2847
451.0,0.2956
452.0,0.2853
453.0,0.2688
454.0,0.2813
455.0,0.2831
456.0,0.2902
457.0,0.2951
458.0,0.2847
459.0,0.2834
460.0,0.284
461.0,0.2908
462.0,0.2936
463.0,0.2918
464.0,0.288
465.0,0.2853
466.0,0.2888
467.0,0.2834
468.0,0.2868
469.0,0.2883
470.0,0.2791
471.0,0.279
472.0,0.294
473.0,0.2903
474.0,0.2903
475.0,0.2921
476.0,0.2825
477.0,0.2826
478.0,0.2906
479.0,0.2893
480.0,0.2903
481.0,0.2965
482.0,0.2988
483.0,0.2962
484.0,0.2908
485.0,0.2778
486.0,0.2436
487.0,0.2559
488.0,0.2808
489.0,0.2815
490.0,0.2966
491.0,0.2919
492.0,0.2758
493.0,0.2851
494.0,0.2881
495.0,0.2908
496.0,0.2927
497.0,0.2972
498.0,0.2832
499.0,0.2864
500.0,0.2775
501.0,0.2718
502.0,0.2668
503.0,0.2765
504.0,0.2662
505.0,0.2784
506.0,0.2874
507.0,0.2737
508.0,0.2663
509.0,0.2746
510.0,0.2739
511.0,0.282
512.0,0.2855
513.0,0.2703
514.0,0.2687
515.0,0.266
516.0,0.2652
517.0,0.2358
518.0,0.2478
519.0,0.2599
520.0,0.2692
521.0,0.2716
522.0,0.2715
523.0,0.2664
524.0,0.2752
525.0,0.2774
526.0,0.2647
527.0,0.2487
528.0,0.2624
529.0,0.276
530.0,0.2716
531.0,0.2753
532.0,0.2657
533.0,0.2579
534.0,0.2658
535.0,0.2721
536.0,0.275
537.0,0.2645
538.0,0.2694
539.0,0.2671
540.0,0.2558
541.0,0.2564
542.0,0.2639
543.0,0.2619
544.0,0.2655
545.0,0.2649
546.0,0.2652
547.0,0.2658
548.0,0.2631
549.0,0.2641
550.0,0.2673
551.0,0.2642
552.0,0.2661
553.0,0.2611
554.0,0.2673
555.0,0.2676
556.0,0.2639
557.0,0.2553
558.0,0.2528
559.0,0.2475
560.0,0.2502
561.0,0.2528
562.0,0.2503
563.0,0.2563
564.0,0.2487
565.0,0.246
566.0,0.2418
567.0,0.2456
568.0,0.2416
569.0,0.2324
570.0,0.2327
571.0,0.2321
572.0,0.2354
573.0,0.2374
574.0,0.2361
575.0,0.2308
576.0,0.2288
577.0,0.2317
578.0,0.2292
579.0,0.2318
580.0,0.2388
581.0,0.2421
582.0,0.2484
583.0,0.2505
584.0,0.2537
585.0,0.2481
586.0,0.2431
587.0,0.2473
588.0,0.237
589.0,0.2018
590.0,0.2116
591.0,0.2289
592.0,0.2231
593.0,0.2302
594.0,0.2271
595.0,0.218
596.0,0.2337
597.0,0.2292
598.0,0.2308
599.0,0.2319
600.0,0.2339
601.0,0.2333
602.0,0.232
603.0,0.2366
604.0,0.2409
605.0,0.2401
606.0,0.2399
607.0,0.2431
608.0,0.2412
609.0,0.2423
610.0,0.2414
611.0,0.2432
612.0,0.243
613.0,0.2404
614.0,0.2378
615.0,0.2437
616.0,0.2362
617.0,0.2362
618.0,0.2457
619.0,0.2435
620.0,0.2451
621.0,0.2448
622.0,0.2416
623.0,0.2376
624.0,0.2339
625.0,0.2332
626.0,0.2364
627.0,0.2373
628.0,0.2012
629.0,0.2244
630.0,0.2185
631.0,0.2304
632.0,0.2291
633.0,0.2389
634.0,0.239
635.0,0.2439
636.0,0.242
637.0,0.2471
638.0,0.2511
639.0,0.2492
640.0,0.2479
641.0,0.2485
642.0,0.2483
643.0,0.2518
644.0,0.2519
645.0,0.2518
646.0,0.2435
647.0,0.2346
648.0,0.2357
649.0,0.2299
650.0,0.2387
651.0,0.2503
652.0,0.2329
653.0,0.2476
654.0,0.2453
655.0,0.2326
656.0,0.2087
657.0,0.2149
658.0,0.2433
659.0,0.246
660.0,0.2478
661.0,0.2501
662.0,0.2494
663.0,0.2449
664.0,0.2498
665.0,0.2515
666.0,0.2523
667.0,0.2529
668.0,0.2539
669.0,0.2584
670.0,0.2577
671.0,0.2581
672.0,0.2562
673.0,0.2605
674.0,0.2599
675.0,0.2579
676.0,0.26
677.0,0.2578
678.0,0.2588
679.0,0.2549
680.0,0.2572
681.0,0.2556
682.0,0.2554
683.0,0.2549
684.0,0.2536
685.0,0.2562
686.0,0.2542
687.0,0.09037
688.0,0.1353
689.0,0.1369
690.0,0.1557
691.0,0.1792
692.0,0.1992
693.0,0.1972
694.0,0.1989
695.0,0.2181
696.0,0.2192
697.0,0.2447
698.0,0.2407
699.0,0.2263
700.0,0.2231
701.0,0.2169
702.0,0.2219
703.0,0.2237
704.0,0.2361
705.0,0.2362
706.0,0.2379
707.0,0.239
708.0,0.2392
709.0,0.2434
710.0,0.2412
711.0,0.2423
712.0,0.2435
713.0,0.2392
714.0,0.2408
715.0,0.2294
716.0,0.2287
717.0,0.1681
718.0,0.1529
719.0,0.1377
720.0,0.1409
721.0,0.1717
722.0,0.2146
723.0,0.1911
724.0,0.161
725.0,0.1555
726.0,0.1633
727.0,0.1731
728.0,0.1539
729.0,0.1697
730.0,0.1762
731.0,0.1672
732.0,0.1901
733.0,0.2108
734.0,0.2194
735.0,0.2129
736.0,0.2118
737.0,0.213
738.0,0.2251
739.0,0.2211
740.0,0.2294
741.0,0.2286
742.0,0.2306
743.0,0.2369
744.0,0.2374
745.0,0.2384
746.0,0.2394
747.0,0.2402
748.0,0.2398
749.0,0.2372
750.0,0.2371
751.0,0.2348
752.0,0.2359
753.0,0.2373
754.0,0.2378
755.0,0.2364
756.0,0.2364
757.0,0.2367
758.0,0.2336
759.0,0.2226
760.0,0.004128
761.0,0.001631
762.0,0.04225
763.0,0.008844
764.0,0.02117
765.0,0.04204
766.0,0.07422
767.0,0.1275
768.0,0.1836
769.0,0.197
770.0,0.215
771.0,0.222
772.0,0.2242
773.0,0.2262
774.0,0.2254
775.0,0.224
776.0,0.2269
777.0,0.2239
778.0,0.2225
779.0,0.2227
780.0,0.2216
781.0,0.2219
782.0,0.2234
783.0,0.2197
784.0,0.2209
785.0,0.2189
786.0,0.2209
787.0,0.2124
788.0,0.2077
789.0,0.2077
790.0,0.1966
791.0,0.2041
792.0,0.2036
793.0,0.1997
794.0,0.2088
795.0,0.2107
796.0,0.1959
797.0,0.1952
798.0,0.2094
799.0,0.2067
800.0,0.2011
801.0,0.1984
802.0,0.1975
803.0,0.1948
804.0,0.1961
805.0,0.198
806.0,0.208
807.0,0.2046
808.0,0.205
809.0,0.1978
810.0,0.1944
811.0,0.1915
812.0,0.179
813.0,0.174
814.0,0.1399
815.0,0.1404
816.0,0.1284
817.0,0.131
818.0,0.1231
819.0,0.1486
820.0,0.1365
821.0,0.1775
822.0,0.1694
823.0,0.08995
824.0,0.1573
825.0,0.1749
826.0,0.1619
827.0,0.1771
828.0,0.1326
829.0,0.1623
830.0,0.1592
831.0,0.1595
832.0,0.1514
833.0,0.1687
834.0,0.1581
835.0,0.1871
836.0,0.1691
837.0,0.1875
838.0,0.1769
839.0,0.1845
840.0,0.1898
841.0,0.185
842.0,0.1886
843.0,0.1921
844.0,0.1876
845.0,0.1963
846.0,0.1961
847.0,0.1935
848.0,0.1907
849.0,0.1853
850.0,0.1777
851.0,0.1865
852.0,0.186
853.0,0.1803
854.0,0.1546
855.0,0.1714
856.0,0.1866
857.0,0.1919
858.0,0.1899
859.0,0.1909
860.0,0.1917
861.0,0.1905
862.0,0.1937
863.0,0.1983
864.0,0.1885
865.0,0.187
866.0,0.1681
867.0,0.1755
868.0,0.191
869.0,0.1872
870.0,0.1925
871.0,0.1899
872.0,0.1893
873.0,0.189
874.0,0.1867
875.0,0.1829
876.0,0.1847
877.0,0.1867
878.0,0.1884
879.0,0.1856
880.0,0.1817
881.0,0.1782
882.0,0.1817
883.0,0.1831
884.0,0.1819
885.0,0.1832
886.0,0.172
887.0,0.1759
888.0,0.1775
889.0,0.1816
890.0,0.1773
891.0,0.1784
892.0,0.1697
893.0,0.1613
894.0,0.1482
895.0,0.1313
896.0,0.1217
897.0,0.09551
898.0,0.108
899.0,0.07265
900.0,0.1165
901.0,0.07619
902.0,0.1013
903.0,0.0977
904.0,0.1464
905.0,0.1388
906.0,0.127
907.0,0.08757
908.0,0.09305
909.0,0.1057
910.0,0.08336
911.0,0.09799
912.0,0.1016
913.0,0.08406
914.0,0.08569
915.0,0.09132
916.0,0.07635
917.0,0.1068
918.0,0.07719
919.0,0.1126
920.0,0.1232
921.0,0.1267
922.0,0.1056
923.0,0.1236
924.0,0.1052
925.0,0.1036
926.0,0.1029
927.0,0.1224
928.0,0.06844
929.0,0.05741
930.0,0.03676
931.0,0.03413
932.0,0.01804
933.0,0.01241
934.0,0.003267
935.0,0.01425
936.0,0.006179
937.0,0.006279
938.0,0.008545
939.0,0.03283
940.0,0.04524
941.0,0.02743
942.0,0.0346
943.0,0.01815
944.0,0.02398
945.0,0.0298
946.0,0.009456
947.0,0.02826
948.0,0.0203
949.0,0.04474
950.0,0.00536
951.0,0.04414
952.0,0.01663
953.0,0.02606
954.0,0.03756
955.0,0.02713
956.0,0.0344
957.0,0.01653
958.0,0.0539
959.0,0.03442
960.0,0.03879
961.0,0.05027
962.0,0.04755
963.0,0.0612
964.0,0.05438
965.0,0.06
966.0,0.06017
967.0,0.05865
968.0,0.1072
969.0,0.1065
970.0,0.09601
971.0,0.1229
972.0,0.1141
973.0,0.08656
974.0,0.08182
975.0,0.08812
976.0,0.07631
977.0,0.1033
978.0,0.0912
979.0,0.09865
980.0,0.09143
981.0,0.1224
982.0,0.1124
983.0,0.1054
984.0,0.1328
985.0,0.1113
986.0,0.1396
987.0,0.133
988.0,0.1333
989.0,0.1421
990.0,0.1321
991.0,0.142
992.0,0.1434
993.0,0.136
994.0,0.1439
995.0,0.1445
996.0,0.1431
997.0,0.1437
998.0,0.1427
999.0,0.1424
1000.0,0.1402
1001.0,0.1433
1002.0,0.1341
1003.0,0.1405
1004.0,0.1356
1005.0,0.1326
1006.0,0.1369
1007.0,0.1402
1008.0,0.1385
1009.0,0.1368
1010.0,0.1357
1011.0,0.1396
1012.0,0.1375
1013.0,0.1396
1014.0,0.1386
1015.0,0.1375
1016.0,0.1368
1017.0,0.1369
1018.0,0.1371
1019.0,0.1321
1020.0,0.136
1021.0,0.1362
1022.0,0.1344
1023.0,0.1358
1024.0,0.132
1025.0,0.1363
1026.0,0.1352
1027.0,0.135
1028.0,0.1346
1029.0,0.1327
1030.0,0.1344
1031.0,0.1336
1032.0,0.1334
1033.0,0.1314
1034.0,0.1314
1035.0,0.1318
1036.0,0.1323
1037.0,0.1302
1038.0,0.1307
1039.0,0.1305
1040.0,0.1299
1041.0,0.1303
1042.0,0.1293
1043.0,0.1288
1044.0,0.1291
1045.0,0.1272
1046.0,0.1257
1047.0,0.1267
1048.0,0.1272
1049.0,0.1266
1050.0,0.1258
1051.0,0.1254
1052.0,0.1247
1053.0,0.1234
1054.0,0.1234
1055.0,0.1232
1056.0,0.1224
1057.0,0.1217
1058.0,0.1184
1059.0,0.1182
1060.0,0.1179
1061.0,0.1176
1062.0,0.1178
1063.0,0.1164
1064.0,0.1179
1065.0,0.1163
1066.0,0.1146
1067.0,0.1159
1068.0,0.1128
1069.0,0.1098
1070.0,0.113
1071.0,0.1165
1072.0,0.1139
1073.0,0.1125
1074.0,0.1174
1075.0,0.1073
1076.0,0.1171
1077.0,0.1126
1078.0,0.1091
1079.0,0.1161
1080.0,0.1107
1081.0,0.1049
1082.0,0.1105
1083.0,0.112
1084.0,0.1038
1085.0,0.1113
1086.0,0.09587
1087.0,0.1027
1088.0,0.1112
1089.0,0.1029
1090.0,0.09885
1091.0,0.1096
1092.0,0.11
1093.0,0.08221
1094.0,0.09923
1095.0,0.08559
1096.0,0.07921
1097.0,0.1075
1098.0,0.07607
1099.0,0.08074
1100.0,0.07133
1101.0,0.07395
1102.0,0.06757
1103.0,0.06479
1104.0,0.06532
1105.0,0.07779
1106.0,0.04453
1107.0,0.07137
1108.0,0.05146
1109.0,0.05237
1110.0,0.068
1111.0,0.03406
1112.0,0.05244
1113.0,0.02304
1114.0,0.0258
1115.0,0.02031
1116.0,0.01195
1117.0,0.001864
1118.0,0.01363
1119.0,0.00401
1120.0,0.00459
1121.0,0.007153
1122.0,0.00145
1123.0,0.004204
1124.0,0.003516
1125.0,0.005244
1126.0,0.0005547
1127.0,0.006042
1128.0,0.001918
1129.0,0.00213
1130.0,0.001337
1131.0,0.01825
1132.0,0.01273
1133.0,0.004789
1134.0,0.0004183
1135.0,0.000202
1136.0,0.003114
1137.0,0.01662
1138.0,0.01073
1139.0,0.02582
1140.0,0.01762
1141.0,0.01036
1142.0,0.0134
1143.0,0.02378
1144.0,0.004593
1145.0,0.004513
1146.0,0.004849
1147.0,0.0005969
1148.0,0.01951
1149.0,0.01306
1150.0,0.005919
1151.0,0.01071
1152.0,0.01612
1153.0,0.01834
1154.0,0.004944
1155.0,0.02691
1156.0,0.02203
1157.0,0.03037
1158.0,0.02987
1159.0,0.03402
1160.0,0.02822
1161.0,0.04157
1162.0,0.04085
1163.0,0.06964
1164.0,0.05469
1165.0,0.04673
1166.0,0.05079
1167.0,0.05767
1168.0,0.05757
1169.0,0.05997
1170.0,0.06986
1171.0,0.06812
1172.0,0.07286
1173.0,0.0698
1174.0,0.04026
1175.0,0.07161
1176.0,0.08572
1177.0,0.0774
1178.0,0.0504
1179.0,0.08623
1180.0,0.0695
1181.0,0.0719
1182.0,0.04042
1183.0,0.07221
1184.0,0.06436
1185.0,0.05916
1186.0,0.08026
1187.0,0.07302
1188.0,0.03914
1189.0,0.06763
1190.0,0.07945
1191.0,0.06842
1192.0,0.08127
1193.0,0.07541
1194.0,0.07939
1195.0,0.07033
1196.0,0.06533
1197.0,0.08102
1198.0,0.07265
1199.0,0.05242
1200.0,0.07463
1201.0,0.06823
1202.0,0.07143
1203.0,0.06824
1204.0,0.05629
1205.0,0.07542
1206.0,0.08783
1207.0,0.06965
1208.0,0.07145
1209.0,0.0731
1210.0,0.07849
1211.0,0.07167
1212.0,0.06486
1213.0,0.08192
1214.0,0.06835
1215.0,0.06679
1216.0,0.08256
1217.0,0.0786
1218.0,0.08169
1219.0,0.07938
1220.0,0.08198
1221.0,0.08431
1222.0,0.08124
1223.0,0.07957
1224.0,0.07675
1225.0,0.08313
1226.0,0.08545
1227.0,0.07331
1228.0,0.08683
1229.0,0.08551
1230.0,0.08302
1231.0,0.0887
1232.0,0.08804
1233.0,0.08056
1234.0,0.08975
1235.0,0.08839
1236.0,0.08966
1237.0,0.08676
1238.0,0.08938
1239.0,0.08819
1240.0,0.08879
1241.0,0.08707
1242.0,0.08803
1243.0,0.0874
1244.0,0.0876
1245.0,0.08822
1246.0,0.08776
1247.0,0.08704
1248.0,0.0863
1249.0,0.08718
1250.0,0.08623
1251.0,0.08428
1252.0,0.08537
1253.0,0.08276
1254.0,0.08054
1255.0,0.08478
1256.0,0.0789
1257.0,0.07776
1258.0,0.08198
1259.0,0.07375
1260.0,0.07477
1261.0,0.06442
1262.0,0.05944
1263.0,0.05941
1264.0,0.04843
1265.0,0.05913
1266.0,0.053
1267.0,0.05663
1268.0,0.0495
1269.0,0.0131
1270.0,0.05535
1271.0,0.06511
1272.0,0.06583
1273.0,0.06444
1274.0,0.06562
1275.0,0.06763
1276.0,0.06955
1277.0,0.07174
1278.0,0.0755
1279.0,0.0749
1280.0,0.07396
1281.0,0.07179
1282.0,0.07116
1283.0,0.07622
1284.0,0.07771
1285.0,0.07858
1286.0,0.08071
1287.0,0.07747
1288.0,0.07816
1289.0,0.07174
1290.0,0.0776
1291.0,0.07943
1292.0,0.06786
1293.0,0.07638
1294.0,0.07559
1295.0,0.07265
1296.0,0.06555
1297.0,0.05943
1298.0,0.06987
1299.0,0.077
1300.0,0.05572
1301.0,0.05873
1302.0,0.07003
1303.0,0.05565
1304.0,0.03967
1305.0,0.06808
1306.0,0.06679
1307.0,0.04326
1308.0,0.0571
1309.0,0.06451
1310.0,0.04147
1311.0,0.05278
1312.0,0.05067
1313.0,0.04703
1314.0,0.039
1315.0,0.03708
1316.0,0.05038
1317.0,0.0463
1318.0,0.05393
1319.0,0.03291
1320.0,0.03326
1321.0,0.0423
1322.0,0.04084
1323.0,0.02374
1324.0,0.03276
1325.0,0.04806
1326.0,0.03693
1327.0,0.03381
1328.0,0.02646
1329.0,0.01442
1330.0,0.02198
1331.0,0.008356
1332.0,0.009626
1333.0,0.01432
1334.0,0.01592
1335.0,0.02266
1336.0,0.01476
1337.0,0.0128
1338.0,0.01339
1339.0,0.01378
1340.0,0.0149
1341.0,0.01092
1342.0,0.01206
1343.0,0.004247
1344.0,0.002875
1345.0,0.003608
1346.0,0.0006551
1347.0,0.0005286
1348.0,8.121e-06
1349.0,3.503e-05
1350.0,4.073e-05
1351.0,4.499e-06
1352.0,9.675e-07
1353.0,4.887e-08
1354.0,1.696e-07
1355.0,1.35e-09
1356.0,2.367e-08
1357.0,3.596e-08
1358.0,1.585e-09
1359.0,1.996e-10
1360.0,7.214e-10
1361.0,8.07e-13
1362.0,2.207e-15
1363.0,9.7e-10
1364.0,4.005e-10
1365.0,7.707e-16
1366.0,4.204e-09
1367.0,1.716e-09
1368.0,5.951e-18
1369.0,1.476e-10
1370.0,7.267e-11
1371.0,4.119e-12
1372.0,9.306e-10
1373.0,1.876e-08
1374.0,8.715e-08
1375.0,1.578e-07
1376.0,1.436e-07
1377.0,6.541e-08
1378.0,6.367e-07
1379.0,2.743e-08
1380.0,3.891e-08
1381.0,1.013e-09
1382.0,8.156e-10
1383.0,1.219e-11
1384.0,1.599e-10
1385.0,7.647e-10
1386.0,7.191e-10
1387.0,8.699e-08
1388.0,1.715e-09
1389.0,2.949e-07
1390.0,2.527e-07
1391.0,1.682e-07
1392.0,1.092e-08
1393.0,5.817e-08
1394.0,2.967e-08
1395.0,2.174e-10
1396.0,1.051e-12
1397.0,2.279e-08
1398.0,6.736e-07
1399.0,4.269e-07
1400.0,4.492e-13
1401.0,1.864e-12
1402.0,1.518e-06
1403.0,1.659e-06
1404.0,4.785e-07
1405.0,1.029e-10
1406.0,1.177e-06
1407.0,1.237e-07
1408.0,9.641e-07
1409.0,3.146e-07
1410.0,2.62e-07
1411.0,1.467e-06
