interpolation:linear
wavelength,value
280.0,2.734e-21
280.5,8.587000000000001e-20
281.0,4.534e-19
281.5,3.426e-19
282.0,1.017e-18
282.5,2.689e-18
283.0,8.732e-18
283.5,1.431e-17
284.0,2.342e-16
284.5,6.769e-16
285.0,1.531e-15
285.5,7.415e-15
286.0,2.963e-14
286.5,1.306e-13
287.0,3.694e-13
287.5,1.397e-12
288.0,3.74e-12
288.5,1.239e-11
289.0,3.511e-11
289.5,1.11e-10
290.0,3.167e-10
290.5,6.58e-10
291.0,1.438e-09
291.5,4.198e-09
292.0,9.01e-09
292.5,1.353e-08
293.0,3.162e-08
293.5,8.646e-08
294.0,1.468e-07
294.5,1.9e-07
295.0,3.49e-07
295.5,9.068e-07
296.0,1.817e-06
296.5,2.651e-06
297.0,3.727e-06
297.5,1.064e-05
298.0,1.779e-05
298.5,1.88e-05
299.0,4.361e-05
299.5,7.964e-05
300.0,9.288e-05
300.5,0.0001435
301.0,0.0002919
301.5,0.0005287
302.0,0.0004891
302.5,0.0009672
303.0,0.001764
303.5,0.002244
304.0,0.002124
304.5,0.003225
305.0,0.005004
305.5,0.005811
306.0,0.005655
306.5,0.007102
307.0,0.01073
307.5,0.0145
308.0,0.01536
308.5,0.01828
309.0,0.01804
309.5,0.02081
310.0,0.02099
310.5,0.03406
311.0,0.0429
311.5,0.04147
312.0,0.04174
312.5,0.05101
313.0,0.05545
313.5,0.05376
314.0,0.06755
314.5,0.06027
315.0,0.0793
315.5,0.06616
316.0,0.05807
316.5,0.08373
317.0,0.104
317.5,0.1081
318.0,0.08457
318.5,0.1055
319.0,0.1256
319.5,0.102
320.0,0.1232
320.5,0.1549
321.0,0.1385
321.5,0.1329
322.0,0.1411
322.5,0.1228
323.0,0.1226
323.5,0.1511
324.0,0.1764
324.5,0.179
325.0,0.1545
325.5,0.1991
326.0,0.2436
326.5,0.2442
327.0,0.2434
327.5,0.235
328.0,0.209
328.5,0.2201
329.0,0.2639
329.5,0.2997
330.0,0.3023
330.5,0.2418
331.0,0.2463
331.5,0.2506
332.0,0.271
332.5,0.2682
333.0,0.2674
333.5,0.2419
334.0,0.2479
334.5,0.2863
335.0,0.2692
335.5,0.3145
336.0,0.2177
336.5,0.2549
337.0,0.2091
337.5,0.2602
338.0,0.2542
338.5,0.2935
339.0,0.2906
339.5,0.2796
340.0,0.3287
340.5,0.2963
341.0,0.2891
341.5,0.2655
342.0,0.3174
342.5,0.297
343.0,0.3267
343.5,0.3077
344.0,0.2275
344.5,0.2298
345.0,0.3042
345.5,0.3107
346.0,0.2642
346.5,0.2992
347.0,0.3213
347.5,0.2599
348.0,0.2964
348.5,0.2963
349.0,0.275
349.5,0.2724
350.0,0.337
350.5,0.3555
351.0,0.3177
351.5,0.3088
352.0,0.3318
352.5,0.259
353.0,0.3264
353.5,0.3491
354.0,0.3625
354.5,0.3677
355.0,0.3665
355.5,0.3313
356.0,0.3467
356.5,0.2961
357.0,0.2447
357.5,0.2996
358.0,0.2375
358.5,0.203
359.0,0.284
359.5,0.362
360.0,0.3839
360.5,0.3069
361.0,0.2799
361.5,0.3224
362.0,0.2789
362.5,0.3862
363.0,0.347
363.5,0.3198
364.0,0.3912
364.5,0.3345
365.0,0.3408
365.5,0.4278
366.0,0.4535
366.5,0.4262
367.0,0.4152
367.5,0.431
368.0,0.3773
368.5,0.3808
369.0,0.4114
369.5,0.4387
370.0,0.4678
370.5,0.3632
371.0,0.3882
371.5,0.4858
372.0,0.3225
372.5,0.3868
373.0,0.3936
373.5,0.2562
374.0,0.3724
374.5,0.3085
375.0,0.3
375.5,0.4479
376.0,0.3714
376.5,0.385
377.0,0.4077
377.5,0.4772
378.0,0.5174
378.5,0.4891
379.0,0.4037
379.5,0.3688
380.0,0.3836
380.5,0.4648
381.0,0.4659
381.5,0.3695
382.0,0.3283
382.5,0.28
383.0,0.2593
383.5,0.2498
384.0,0.2756
384.5,0.4056
385.0,0.4023
385.5,0.3748
386.0,0.3211
386.5,0.422
387.0,0.3507
387.5,0.394
388.0,0.3639
388.5,0.3598
389.0,0.3885
389.5,0.4707
390.0,0.4726
390.5,0.435
391.0,0.5122
391.5,0.5226
392.0,0.4403
392.5,0.3943
393.0,0.2195
393.5,0.1596
394.0,0.3248
394.5,0.4131
395.0,0.5042
395.5,0.5123
396.0,0.4443
396.5,0.2598
397.0,0.195
397.5,0.3968
398.0,0.5557
398.5,0.5745
399.0,0.6224
399.5,0.6205
400.0,0.6444
401.0,0.6531
402.0,0.6895
403.0,0.6553
404.0,0.6455
405.0,0.6457
406.0,0.6356
407.0,0.6257
408.0,0.6503
409.0,0.6963
410.0,0.6087
411.0,0.6596
412.0,0.7089
413.0,0.6915
414.0,0.7003
415.0,0.7025
416.0,0.7151
417.0,0.6978
418.0,0.6851
419.0,0.6944
420.0,0.6916
421.0,0.7238
422.0,0.6882
423.0,0.6725
424.0,0.7114
425.0,0.7104
426.0,0.6924
427.0,0.6796
428.0,0.6622
429.0,0.6276
430.0,0.5494
431.0,0.5446
432.0,0.7035
433.0,0.7076
434.0,0.6572
435.0,0.6864
436.0,0.7738
437.0,0.7637
438.0,0.6957
439.0,0.7194
440.0,0.7426
441.0,0.7698
442.0,0.8257
443.0,0.8043
444.0,0.822
445.0,0.8043
446.0,0.7679
447.0,0.8305
448.0,0.8434
449.0,0.8472
450.0,0.8711
451.0,0.9036
452.0,0.8707
453.0,0.8192
454.0,0.8554
455.0,0.8608
456.0,0.8814
457.0,0.8962
458.0,0.8655
459.0,0.8612
460.0,0.8635
461.0,0.8835
462.0,0.8906
463.0,0.8845
464.0,0.8702
465.0,0.8595
466.0,0.868
467.0,0.8522
468.0,0.8622
469.0,0.8668
470.0,0.8392
471.0,0.8382
472.0,0.8832
473.0,0.8718
474.0,0.8729
475.0,0.8802
476.0,0.8537
477.0,0.856
478.0,0.8798
479.0,0.8746
480.0,0.8765
481.0,0.8931
482.0,0.898
483.0,0.8874
484.0,0.8694
485.0,0.8285
486.0,0.7244
487.0,0.7594
488.0,0.8331
489.0,0.8357
490.0,0.8793
491.0,0.8643
492.0,0.8162
493.0,0.843
494.0,0.8515
495.0,0.8588
496.0,0.8641
497.0,0.8775
498.0,0.8365
499.0,0.8471
500.0,0.8223
501.0,0.8071
502.0,0.7955
503.0,0.8276
504.0,0.8056
505.0,0.8352
506.0,0.8622
507.0,0.8205
508.0,0.7952
509.0,0.8177
510.0,0.8136
511.0,0.8356
512.0,0.8448
513.0,0.7996
514.0,0.7942
515.0,0.7864
516.0,0.7844
517.0,0.697
518.0,0.7328
519.0,0.7686
520.0,0.7965
521.0,0.8041
522.0,0.8047
523.0,0.7902
524.0,0.8183
525.0,0.8277
526.0,0.7906
527.0,0.7449
528.0,0.7876
529.0,0.8301
530.0,0.8181
531.0,0.8302
532.0,0.8016
533.0,0.7781
534.0,0.8012
535.0,0.8188
536.0,0.8264
537.0,0.7939
538.0,0.808
539.0,0.8012
540.0,0.7681
541.0,0.7729
542.0,0.797
543.0,0.7888
544.0,0.8023
545.0,0.7999
546.0,0.8032
547.0,0.803
548.0,0.7935
549.0,0.796
550.0,0.8055
551.0,0.7957
552.0,0.8013
553.0,0.7869
554.0,0.8057
555.0,0.8072
556.0,0.7967
557.0,0.7719
558.0,0.7659
559.0,0.7515
560.0,0.7608
561.0,0.7705
562.0,0.7647
563.0,0.7854
564.0,0.7639
565.0,0.7571
566.0,0.7459
567.0,0.7598
568.0,0.7526
569.0,0.7337
570.0,0.7336
571.0,0.7295
572.0,0.7464
573.0,0.7542
574.0,0.7517
575.0,0.7374
576.0,0.7307
577.0,0.7388
578.0,0.728
579.0,0.7313
580.0,0.7459
581.0,0.7503
582.0,0.7649
583.0,0.7672
584.0,0.7741
585.0,0.7553
586.0,0.7398
587.0,0.7557
588.0,0.7361
589.0,0.6498
590.0,0.6798
591.0,0.7207
592.0,0.7108
593.0,0.7224
594.0,0.7169
595.0,0.6984
596.0,0.7279
597.0,0.7195
598.0,0.7182
599.0,0.7191
600.0,0.7207
601.0,0.7152
602.0,0.7104
603.0,0.7223
604.0,0.7344
605.0,0.7307
606.0,0.7279
607.0,0.7353
608.0,0.7274
609.0,0.7288
610.0,0.7238
611.0,0.7277
612.0,0.7257
613.0,0.7167
614.0,0.7071
615.0,0.7227
616.0,0.699
617.0,0.6977
618.0,0.7246
619.0,0.7173
620.0,0.7219
621.0,0.7224
622.0,0.7138
623.0,0.7028
624.0,0.6909
625.0,0.6893
626.0,0.6995
627.0,0.7069
628.0,0.6548
629.0,0.6883
630.0,0.6723
631.0,0.6893
632.0,0.6813
633.0,0.7028
634.0,0.6966
635.0,0.7077
636.0,0.6987
637.0,0.7104
638.0,0.7176
639.0,0.7098
640.0,0.7032
641.0,0.7029
642.0,0.6999
643.0,0.7094
644.0,0.7073
645.0,0.7083
646.0,0.6912
647.0,0.6815
648.0,0.682
649.0,0.6687
650.0,0.6738
651.0,0.7034
652.0,0.6721
653.0,0.6942
654.0,0.6866
655.0,0.66
656.0,0.5857
657.0,0.6016
658.0,0.6747
659.0,0.6798
660.0,0.6828
661.0,0.6876
662.0,0.6887
663.0,0.6752
664.0,0.6837
665.0,0.6847
666.0,0.6854
667.0,0.685
668.0,0.6855
669.0,0.6962
670.0,0.6933
671.0,0.6933
672.0,0.6874
673.0,0.6978
674.0,0.6953
675.0,0.6891
676.0,0.6939
677.0,0.6871
678.0,0.6891
679.0,0.678
680.0,0.6835
681.0,0.679
682.0,0.6782
683.0,0.6769
684.0,0.6735
685.0,0.6794
686.0,0.6752
687.0,0.4251
688.0,0.509
689.0,0.5112
690.0,0.5399
691.0,0.5725
692.0,0.5968
693.0,0.5916
694.0,0.5868
695.0,0.6139
696.0,0.6149
697.0,0.656
698.0,0.6457
699.0,0.628
700.0,0.6203
701.0,0.6132
702.0,0.6183
703.0,0.6196
704.0,0.6408
705.0,0.6418
706.0,0.6417
707.0,0.6424
708.0,0.6438
709.0,0.6456
710.0,0.6451
711.0,0.6445
712.0,0.643
713.0,0.6361
714.0,0.6386
715.0,0.6176
716.0,0.6177
717.0,0.5273
718.0,0.4831
719.0,0.4418
720.0,0.462
721.0,0.5151
722.0,0.5948
723.0,0.551
724.0,0.4931
725.0,0.484
726.0,0.5071
727.0,0.5165
728.0,0.4824
729.0,0.5035
730.0,0.5326
731.0,0.5087
732.0,0.5473
733.0,0.5824
734.0,0.5971
735.0,0.5843
736.0,0.5835
737.0,0.5858
738.0,0.5969
739.0,0.5852
740.0,0.6011
741.0,0.5955
742.0,0.5964
743.0,0.6117
744.0,0.6102
745.0,0.6106
746.0,0.6133
747.0,0.6147
748.0,0.6135
749.0,0.6065
750.0,0.6061
751.0,0.6
752.0,0.6026
753.0,0.6057
754.0,0.6071
755.0,0.6036
756.0,0.6034
757.0,0.6042
758.0,0.5967
759.0,0.5833
760.0,0.07639
761.0,0.03673
762.0,0.2733
763.0,0.1237
764.0,0.197
765.0,0.2732
766.0,0.347
767.0,0.4501
768.0,0.5295
769.0,0.5429
770.0,0.564
771.0,0.5697
772.0,0.5713
773.0,0.5754
774.0,0.5726
775.0,0.5684
776.0,0.5753
777.0,0.5677
778.0,0.5643
779.0,0.5647
780.0,0.5616
781.0,0.5622
782.0,0.5657
783.0,0.5559
784.0,0.5586
785.0,0.5544
786.0,0.5604
787.0,0.5496
788.0,0.5423
789.0,0.542
790.0,0.5261
791.0,0.5321
792.0,0.5283
793.0,0.5196
794.0,0.5301
795.0,0.5386
796.0,0.52
797.0,0.5206
798.0,0.5377
799.0,0.5339
800.0,0.5242
801.0,0.5221
802.0,0.5206
803.0,0.5164
804.0,0.5173
805.0,0.5163
806.0,0.5318
807.0,0.5251
808.0,0.5257
809.0,0.5151
810.0,0.5103
811.0,0.5099
812.0,0.4939
813.0,0.4829
814.0,0.4204
815.0,0.4181
816.0,0.3886
817.0,0.3961
818.0,0.3803
819.0,0.429
820.0,0.4026
821.0,0.4759
822.0,0.4614
823.0,0.3054
824.0,0.4461
825.0,0.4675
826.0,0.4481
827.0,0.4747
828.0,0.3974
829.0,0.4457
830.0,0.4394
831.0,0.4411
832.0,0.4266
833.0,0.4564
834.0,0.4385
835.0,0.4855
836.0,0.4623
837.0,0.487
838.0,0.4707
839.0,0.4799
840.0,0.4907
841.0,0.4832
842.0,0.4851
843.0,0.4856
844.0,0.4784
845.0,0.4952
846.0,0.4932
847.0,0.4842
848.0,0.4809
849.0,0.4672
850.0,0.4476
851.0,0.4736
852.0,0.4704
853.0,0.4531
854.0,0.391
855.0,0.4299
856.0,0.4696
857.0,0.4804
858.0,0.4767
859.0,0.4773
860.0,0.4783
861.0,0.4756
862.0,0.4832
863.0,0.4946
864.0,0.4699
865.0,0.4658
866.0,0.4188
867.0,0.4371
868.0,0.4757
869.0,0.4658
870.0,0.4791
871.0,0.4726
872.0,0.4709
873.0,0.47
874.0,0.4644
875.0,0.455
876.0,0.4597
877.0,0.4644
878.0,0.4693
879.0,0.4621
880.0,0.4522
881.0,0.4452
882.0,0.4548
883.0,0.4564
884.0,0.4543
885.0,0.4577
886.0,0.4355
887.0,0.4407
888.0,0.4468
889.0,0.4525
890.0,0.448
891.0,0.4476
892.0,0.4337
893.0,0.419
894.0,0.402
895.0,0.377
896.0,0.3542
897.0,0.3007
898.0,0.33
899.0,0.2468
900.0,0.3402
901.0,0.2588
902.0,0.3093
903.0,0.3105
904.0,0.399
905.0,0.3841
906.0,0.3585
907.0,0.2857
908.0,0.2923
909.0,0.3191
910.0,0.2776
911.0,0.2989
912.0,0.3133
913.0,0.2815
914.0,0.28
915.0,0.3036
916.0,0.2559
917.0,0.3296
918.0,0.2621
919.0,0.337
920.0,0.3432
921.0,0.3572
922.0,0.316
923.0,0.3453
924.0,0.3233
925.0,0.3163
926.0,0.3195
927.0,0.3611
928.0,0.2552
929.0,0.2303
930.0,0.1768
931.0,0.168
932.0,0.1166
933.0,0.09265
934.0,0.04633
935.0,0.09658
936.0,0.05742
937.0,0.05792
938.0,0.07234
939.0,0.1627
940.0,0.1989
941.0,0.1459
942.0,0.1715
943.0,0.1095
944.0,0.1184
945.0,0.1513
946.0,0.07263
947.0,0.1508
948.0,0.1103
949.0,0.2062
950.0,0.05087
951.0,0.2038
952.0,0.1038
953.0,0.1378
954.0,0.1733
955.0,0.1399
956.0,0.1388
957.0,0.1035
958.0,0.2022
959.0,0.1557
960.0,0.1745
961.0,0.1998
962.0,0.1886
963.0,0.2208
964.0,0.2012
965.0,0.2202
966.0,0.2195
967.0,0.2182
968.0,0.3048
969.0,0.317
970.0,0.2897
971.0,0.337
972.0,0.3213
973.0,0.2743
974.0,0.2596
975.0,0.2716
976.0,0.2549
977.0,0.296
978.0,0.2787
979.0,0.2936
980.0,0.275
981.0,0.3352
982.0,0.3185
983.0,0.3046
984.0,0.3477
985.0,0.3173
986.0,0.3552
987.0,0.3466
988.0,0.3461
989.0,0.3551
990.0,0.344
991.0,0.3559
992.0,0.3582
993.0,0.3486
994.0,0.3582
995.0,0.358
996.0,0.3562
997.0,0.3568
998.0,0.355
999.0,0.3538
1000.0,0.3509
1001.0,0.3558
1002.0,0.3444
1003.0,0.3494
1004.0,0.3404
1005.0,0.3285
1006.0,0.3411
1007.0,0.3484
1008.0,0.3463
1009.0,0.3441
1010.0,0.3425
1011.0,0.3467
1012.0,0.3434
1013.0,0.346
1014.0,0.3435
1015.0,0.3412
1016.0,0.3396
1017.0,0.3404
1018.0,0.3394
1019.0,0.3315
1020.0,0.3375
1021.0,0.3371
1022.0,0.3343
1023.0,0.3378
1024.0,0.3328
1025.0,0.3378
1026.0,0.3362
1027.0,0.3354
1028.0,0.3347
1029.0,0.3306
1030.0,0.3331
1031.0,0.3317
1032.0,0.3308
1033.0,0.3258
1034.0,0.3259
1035.0,0.3269
1036.0,0.3285
1037.0,0.3232
1038.0,0.3246
1039.0,0.3244
1040.0,0.323
1041.0,0.3243
1042.0,0.322
1043.0,0.321
1044.0,0.322
1045.0,0.3176
1046.0,0.3141
1047.0,0.3169
1048.0,0.3186
1049.0,0.3174
1050.0,0.3159
1051.0,0.3153
1052.0,0.314
1053.0,0.3114
1054.0,0.312
1055.0,0.3121
1056.0,0.3109
1057.0,0.3099
1058.0,0.3022
1059.0,0.3024
1060.0,0.3019
1061.0,0.3015
1062.0,0.3029
1063.0,0.2999
1064.0,0.3035
1065.0,0.3011
1066.0,0.2953
1067.0,0.299
1068.0,0.2923
1069.0,0.2834
1070.0,0.2929
1071.0,0.298
1072.0,0.2941
1073.0,0.29
1074.0,0.2981
1075.0,0.2815
1076.0,0.2978
1077.0,0.2915
1078.0,0.2856
1079.0,0.2933
1080.0,0.287
1081.0,0.277
1082.0,0.2829
1083.0,0.2841
1084.0,0.2759
1085.0,0.2878
1086.0,0.2603
1087.0,0.2703
1088.0,0.2835
1089.0,0.2733
1090.0,0.2663
1091.0,0.2822
1092.0,0.2818
1093.0,0.2345
1094.0,0.2573
1095.0,0.2448
1096.0,0.2331
1097.0,0.2753
1098.0,0.2289
1099.0,0.2395
1100.0,0.2207
1101.0,0.2241
1102.0,0.2128
1103.0,0.2099
1104.0,0.2103
1105.0,0.2336
1106.0,0.1713
1107.0,0.2204
1108.0,0.1825
1109.0,0.1837
1110.0,0.2178
1111.0,0.142
1112.0,0.1826
1113.0,0.1104
1114.0,0.1238
1115.0,0.1024
1116.0,0.07832
1117.0,0.02531
1118.0,0.0863
1119.0,0.0399
1120.0,0.04995
1121.0,0.068
1122.0,0.02616
1123.0,0.04526
1124.0,0.03816
1125.0,0.05051
1126.0,0.0152
1127.0,0.0572
1128.0,0.03156
1129.0,0.03383
1130.0,0.0214
1131.0,0.1152
1132.0,0.08907
1133.0,0.05283
1134.0,0.01165
1135.0,0.004481
1136.0,0.04281
1137.0,0.1118
1138.0,0.07812
1139.0,0.1238
1140.0,0.1006
1141.0,0.0743
1142.0,0.0869
1143.0,0.1265
1144.0,0.04077
1145.0,0.05101
1146.0,0.05497
1147.0,0.0169
1148.0,0.1092
1149.0,0.08509
1150.0,0.04431
1151.0,0.07748
1152.0,0.09792
1153.0,0.09739
1154.0,0.04922
1155.0,0.129
1156.0,0.1147
1157.0,0.1312
1158.0,0.1298
1159.0,0.1417
1160.0,0.1193
1161.0,0.1509
1162.0,0.1514
1163.0,0.211
1164.0,0.1786
1165.0,0.1662
1166.0,0.1668
1167.0,0.1828
1168.0,0.1843
1169.0,0.1895
1170.0,0.2078
1171.0,0.2025
1172.0,0.2073
1173.0,0.2074
1174.0,0.1435
1175.0,0.2036
1176.0,0.2262
1177.0,0.2155
1178.0,0.1585
1179.0,0.2281
1180.0,0.201
1181.0,0.2076
1182.0,0.1395
1183.0,0.2049
1184.0,0.1908
1185.0,0.183
1186.0,0.2207
1187.0,0.209
1188.0,0.1414
1189.0,0.1945
1190.0,0.2158
1191.0,0.2028
1192.0,0.219
1193.0,0.2092
1194.0,0.2161
1195.0,0.2029
1196.0,0.1946
1197.0,0.2169
1198.0,0.1975
1199.0,0.165
1200.0,0.2064
1201.0,0.198
1202.0,0.1977
1203.0,0.1957
1204.0,0.1697
1205.0,0.2032
1206.0,0.226
1207.0,0.1968
1208.0,0.1946
1209.0,0.1988
1210.0,0.2078
1211.0,0.1968
1212.0,0.1929
1213.0,0.2178
1214.0,0.1982
1215.0,0.1942
1216.0,0.2172
1217.0,0.2109
1218.0,0.2154
1219.0,0.2125
1220.0,0.2157
1221.0,0.2182
1222.0,0.2122
1223.0,0.21
1224.0,0.2082
1225.0,0.2167
1226.0,0.2186
1227.0,0.2002
1228.0,0.22
1229.0,0.2186
1230.0,0.2146
1231.0,0.2217
1232.0,0.2203
1233.0,0.2115
1234.0,0.2217
1235.0,0.2202
1236.0,0.2219
1237.0,0.2183
1238.0,0.2212
1239.0,0.2183
1240.0,0.2192
1241.0,0.2179
1242.0,0.2177
1243.0,0.2159
1244.0,0.2174
1245.0,0.2183
1246.0,0.2171
1247.0,0.2162
1248.0,0.2158
1249.0,0.2167
1250.0,0.2153
1251.0,0.2123
1252.0,0.2126
1253.0,0.2104
1254.0,0.208
1255.0,0.2122
1256.0,0.2055
1257.0,0.2042
1258.0,0.2087
1259.0,0.1999
1260.0,0.2011
1261.0,0.1882
1262.0,0.1817
1263.0,0.182
1264.0,0.1662
1265.0,0.1809
1266.0,0.173
1267.0,0.1768
1268.0,0.1664
1269.0,0.09547
1270.0,0.1758
1271.0,0.1878
1272.0,0.1886
1273.0,0.1864
1274.0,0.1872
1275.0,0.1902
1276.0,0.1924
1277.0,0.194
1278.0,0.1984
1279.0,0.1965
1280.0,0.1941
1281.0,0.1855
1282.0,0.1792
1283.0,0.1929
1284.0,0.1974
1285.0,0.1988
1286.0,0.2018
1287.0,0.1982
1288.0,0.1983
1289.0,0.191
1290.0,0.1966
1291.0,0.1995
1292.0,0.1856
1293.0,0.1952
1294.0,0.1937
1295.0,0.1923
1296.0,0.1824
1297.0,0.1717
1298.0,0.1866
1299.0,0.1956
1300.0,0.1625
1301.0,0.1681
1302.0,0.186
1303.0,0.1607
1304.0,0.1343
1305.0,0.182
1306.0,0.1818
1307.0,0.1382
1308.0,0.1615
1309.0,0.1801
1310.0,0.1354
1311.0,0.1542
1312.0,0.1495
1313.0,0.1461
1314.0,0.1298
1315.0,0.1274
1316.0,0.1512
1317.0,0.1429
1318.0,0.1565
1319.0,0.1188
1320.0,0.1159
1321.0,0.1362
1322.0,0.1369
1323.0,0.1002
1324.0,0.1167
1325.0,0.1488
1326.0,0.1259
1327.0,0.1196
1328.0,0.1021
1329.0,0.07415
1330.0,0.09782
1331.0,0.05607
1332.0,0.05888
1333.0,0.08259
1334.0,0.07159
1335.0,0.09968
1336.0,0.07722
1337.0,0.06756
1338.0,0.07305
1339.0,0.07316
1340.0,0.07201
1341.0,0.06834
1342.0,0.07198
1343.0,0.04504
1344.0,0.02726
1345.0,0.03936
1346.0,0.01737
1347.0,0.01728
1348.0,0.00086
1349.0,0.003322
1350.0,0.003633
1351.0,0.0006933
1352.0,0.0001415
1353.0,5.526e-06
1354.0,2.297e-05
1355.0,1.036e-07
1356.0,2.659e-06
1357.0,4.068e-06
1358.0,1.256e-07
1359.0,1.012e-08
1360.0,4.903e-08
1361.0,2.183e-11
1362.0,4.17e-14
1363.0,5.643e-08
1364.0,2.342e-08
1365.0,8.891e-15
1366.0,2.774e-07
1367.0,1.261e-07
1368.0,2.833e-17
1369.0,8.611e-09
1370.0,3.516e-09
1371.0,1.611e-10
1372.0,6.991e-08
1373.0,1.892e-06
1374.0,1.08e-05
1375.0,1.914e-05
1376.0,2.092e-05
1377.0,9.189e-06
1378.0,9.685e-05
1379.0,3.857e-06
1380.0,4.853e-06
1381.0,1.141e-07
1382.0,5.965e-08
1383.0,7.731e-10
1384.0,8.985e-09
1385.0,7.047e-08
1386.0,4.636e-08
1387.0,9.717e-06
1388.0,1.986e-07
1389.0,4.198e-05
1390.0,3.573e-05
1391.0,2.304e-05
1392.0,1.425e-06
1393.0,8.415e-06
1394.0,3.068e-06
1395.0,1.829e-08
1396.0,3.567e-11
1397.0,3.093e-06
1398.0,0.0001059
1399.0,6.786e-05
1400.0,1.201e-11
1401.0,7.013e-11
1402.0,0.0002559
1403.0,0.0003031
1404.0,8.988e-05
1405.0,7.568e-09
1406.0,0.0002112
1407.0,2.053e-05
1408.0,0.0001762
1409.0,4.993e-05
1410.0,4.543e-05
1411.0,0.0002698
1412.0,0.000395
1413.0,0.005117
1414.0,3.67e-05
1415.0,1.632e-05
1416.0,0.009853
1417.0,0.002545
1418.0,0.002784
1419.0,0.0004159
1420.0,0.001691
1421.0,0.001862
1422.0,0.01294
1423.0,0.002403
1424.0,0.004637
1425.0,0.006576
1426.0,0.008032
1427.0,0.01603
1428.0,0.0007874
1429.0,0.01132
1430.0,0.02103
1431.0,0.02355
1432.0,0.0006125
1433.0,0.01439
1434.0,0.007031
1435.0,0.006069
1436.0,0.01317
1437.0,0.01014
