interpolation:linear
wavelength,value
280.0,2.7279999999999996e-22
280.5,8.974e-21
281.0,4.811000000000001e-20
281.5,4.01e-19
282.0,6.569e-19
282.5,1.63e-18
283.0,5.156e-18
283.5,8.396e-18
284.0,1.383e-16
284.5,4.036e-16
285.0,6.639e-16
285.5,3.317e-15
286.0,1.338e-14
286.5,6.029e-14
287.0,1.731e-13
287.5,6.677e-13
288.0,2.316e-12
288.5,6.968e-12
289.0,1.849e-11
289.5,5.57e-11
290.0,1.544e-10
290.5,3.147e-10
291.0,6.753e-10
291.5,1.938e-09
292.0,3.906e-09
292.5,5.49e-09
293.0,1.18e-08
293.5,2.881e-08
294.0,4.513e-08
294.5,6.187e-08
295.0,1.05e-07
295.5,1.762e-07
296.0,3.43e-07
296.5,4.845e-07
297.0,6.615e-07
297.5,1.803e-06
298.0,2.886e-06
298.5,2.942e-06
299.0,6.579e-06
299.5,1.125e-05
300.0,1.259e-05
300.5,1.86e-05
301.0,3.484e-05
301.5,5.741e-05
302.0,4.997e-05
302.5,0.0001008
303.0,0.0001897
303.5,0.0002478
304.0,0.0002414
304.5,0.0003968
305.0,0.0006916
305.5,0.000867
306.0,0.0008694
306.5,0.001149
307.0,0.001948
307.5,0.002955
308.0,0.003189
308.5,0.004024
309.0,0.004082
309.5,0.005173
310.0,0.005446
310.5,0.009027
311.0,0.01177
311.5,0.01155
312.0,0.01253
312.5,0.01609
313.0,0.01795
313.5,0.01698
314.0,0.02264
314.5,0.02184
315.0,0.02914
315.5,0.0234
316.0,0.02189
316.5,0.03333
317.0,0.04133
317.5,0.04231
318.0,0.03435
318.5,0.04603
319.0,0.05676
319.5,0.04351
320.0,0.05209
320.5,0.07045
321.0,0.06724
321.5,0.06493
322.0,0.06425
322.5,0.05612
323.0,0.05867
323.5,0.07547
324.0,0.0888
324.5,0.08841
325.0,0.07449
325.5,0.09964
326.0,0.1233
326.5,0.1267
327.0,0.1251
327.5,0.1194
328.0,0.1029
328.5,0.1126
329.0,0.1393
329.5,0.1598
330.0,0.16
330.5,0.1249
331.0,0.1262
331.5,0.1307
332.0,0.1451
332.5,0.1454
333.0,0.144
333.5,0.1278
334.0,0.1305
334.5,0.1541
335.0,0.1468
335.5,0.172
336.0,0.1191
336.5,0.1382
337.0,0.1123
337.5,0.1393
338.0,0.1386
338.5,0.1609
339.0,0.1595
339.5,0.1534
340.0,0.1795
340.5,0.1622
341.0,0.1588
341.5,0.1461
342.0,0.1748
342.5,0.1638
343.0,0.1799
343.5,0.1693
344.0,0.1248
344.5,0.1264
345.0,0.1677
345.5,0.1715
346.0,0.146
346.5,0.1655
347.0,0.1775
347.5,0.1436
348.0,0.164
348.5,0.1641
349.0,0.1524
349.5,0.151
350.0,0.1869
350.5,0.1973
351.0,0.1762
351.5,0.171
352.0,0.184
352.5,0.1438
353.0,0.1814
353.5,0.1942
354.0,0.2017
354.5,0.2047
355.0,0.204
355.5,0.1845
356.0,0.1932
356.5,0.1651
357.0,0.1364
357.5,0.1671
358.0,0.1325
358.5,0.1133
359.0,0.1585
359.5,0.202
360.0,0.2142
360.5,0.1714
361.0,0.1564
361.5,0.1803
362.0,0.1561
362.5,0.2163
363.0,0.1945
363.5,0.1793
364.0,0.2195
364.5,0.1877
365.0,0.1913
365.5,0.2403
366.0,0.2548
366.5,0.2397
367.0,0.2335
367.5,0.2425
368.0,0.2124
368.5,0.2144
369.0,0.2318
369.5,0.2472
370.0,0.2637
370.5,0.2049
371.0,0.2191
371.5,0.2742
372.0,0.1821
372.5,0.2185
373.0,0.2225
373.5,0.1449
374.0,0.2107
374.5,0.1746
375.0,0.1698
375.5,0.2537
376.0,0.2104
376.5,0.2182
377.0,0.2312
377.5,0.2706
378.0,0.2935
378.5,0.2776
379.0,0.2291
379.5,0.2094
380.0,0.2178
380.5,0.264
381.0,0.2649
381.5,0.2102
382.0,0.1868
382.5,0.1595
383.0,0.1478
383.5,0.1424
384.0,0.1572
384.5,0.2314
385.0,0.2297
385.5,0.2141
386.0,0.1835
386.5,0.2413
387.0,0.2006
387.5,0.2254
388.0,0.2083
388.5,0.2061
389.0,0.2226
389.5,0.2698
390.0,0.271
390.5,0.2495
391.0,0.294
391.5,0.3
392.0,0.2528
392.5,0.2265
393.0,0.1262
393.5,0.09178
394.0,0.1869
394.5,0.2378
395.0,0.2903
395.5,0.2951
396.0,0.256
396.5,0.1498
397.0,0.1125
397.5,0.229
398.0,0.3207
398.5,0.3317
399.0,0.3596
399.5,0.3587
400.0,0.3725
401.0,0.3757
402.0,0.3971
403.0,0.3778
404.0,0.3724
405.0,0.3728
406.0,0.3673
407.0,0.362
408.0,0.3763
409.0,0.4032
410.0,0.3528
411.0,0.3827
412.0,0.4118
413.0,0.4018
414.0,0.4073
415.0,0.409
416.0,0.4168
417.0,0.4069
418.0,0.3998
419.0,0.4055
420.0,0.4041
421.0,0.4233
422.0,0.4027
423.0,0.3938
424.0,0.4167
425.0,0.4165
426.0,0.4064
427.0,0.3992
428.0,0.3892
429.0,0.3693
430.0,0.3236
431.0,0.3208
432.0,0.4147
433.0,0.4174
434.0,0.3879
435.0,0.4052
436.0,0.4573
437.0,0.4519
438.0,0.412
439.0,0.4257
440.0,0.4397
441.0,0.4562
442.0,0.4897
443.0,0.4768
444.0,0.4878
445.0,0.4773
446.0,0.4564
447.0,0.4942
448.0,0.5017
449.0,0.5047
450.0,0.5193
451.0,0.5389
452.0,0.5196
453.0,0.4892
454.0,0.5113
455.0,0.5146
456.0,0.5272
457.0,0.5361
458.0,0.5175
459.0,0.5152
460.0,0.5164
461.0,0.5285
462.0,0.5333
463.0,0.5297
464.0,0.5218
465.0,0.5161
466.0,0.5218
467.0,0.5121
468.0,0.5182
469.0,0.521
470.0,0.5044
471.0,0.504
472.0,0.5311
473.0,0.5242
474.0,0.5245
475.0,0.5285
476.0,0.5119
477.0,0.5128
478.0,0.5273
479.0,0.5245
480.0,0.526
481.0,0.5366
482.0,0.5402
483.0,0.5345
484.0,0.5241
485.0,0.5
486.0,0.4377
487.0,0.4592
488.0,0.5038
489.0,0.5052
490.0,0.5319
491.0,0.5231
492.0,0.4941
493.0,0.5104
494.0,0.5157
495.0,0.5202
496.0,0.5234
497.0,0.5315
498.0,0.5066
499.0,0.5127
500.0,0.4974
501.0,0.4877
502.0,0.4799
503.0,0.4983
504.0,0.4827
505.0,0.5024
506.0,0.5186
507.0,0.4936
508.0,0.4792
509.0,0.4934
510.0,0.4914
511.0,0.5052
512.0,0.5111
513.0,0.4838
514.0,0.4808
515.0,0.476
516.0,0.4748
517.0,0.422
518.0,0.4436
519.0,0.4653
520.0,0.4821
521.0,0.4865
522.0,0.4867
523.0,0.4777
524.0,0.4943
525.0,0.4993
526.0,0.4767
527.0,0.4486
528.0,0.4739
529.0,0.4991
530.0,0.4917
531.0,0.4987
532.0,0.4814
533.0,0.4673
534.0,0.4814
535.0,0.4923
536.0,0.4971
537.0,0.4779
538.0,0.4865
539.0,0.4824
540.0,0.4623
541.0,0.4644
542.0,0.4785
543.0,0.4742
544.0,0.4817
545.0,0.4803
546.0,0.4817
547.0,0.4822
548.0,0.4767
549.0,0.4784
550.0,0.4841
551.0,0.4784
552.0,0.4817
553.0,0.473
554.0,0.4842
555.0,0.485
556.0,0.4785
557.0,0.4634
558.0,0.4594
559.0,0.4503
560.0,0.4556
561.0,0.4611
562.0,0.4572
563.0,0.469
564.0,0.4556
565.0,0.4513
566.0,0.4442
567.0,0.452
568.0,0.4464
569.0,0.4327
570.0,0.433
571.0,0.4312
572.0,0.4395
573.0,0.4438
574.0,0.4419
575.0,0.433
576.0,0.4291
577.0,0.434
578.0,0.4284
579.0,0.4315
580.0,0.442
581.0,0.4459
582.0,0.4559
583.0,0.4583
584.0,0.4631
585.0,0.4522
586.0,0.443
587.0,0.4518
588.0,0.437
589.0,0.3799
590.0,0.3978
591.0,0.4254
592.0,0.4174
593.0,0.427
594.0,0.4226
595.0,0.4094
596.0,0.4316
597.0,0.4254
598.0,0.4261
599.0,0.4273
600.0,0.4295
601.0,0.4271
602.0,0.4244
603.0,0.432
604.0,0.4395
605.0,0.4376
606.0,0.4364
607.0,0.4415
608.0,0.4373
609.0,0.4386
610.0,0.4362
611.0,0.4389
612.0,0.438
613.0,0.4328
614.0,0.4275
615.0,0.4374
616.0,0.4234
617.0,0.4229
618.0,0.4395
619.0,0.4353
620.0,0.438
621.0,0.438
622.0,0.4324
623.0,0.4254
624.0,0.4185
625.0,0.4176
626.0,0.4236
627.0,0.4269
628.0,0.3817
629.0,0.4109
630.0,0.4008
631.0,0.4157
632.0,0.4118
633.0,0.4267
634.0,0.4245
635.0,0.4321
636.0,0.4275
637.0,0.4354
638.0,0.4409
639.0,0.4366
640.0,0.4333
641.0,0.4336
642.0,0.4323
643.0,0.4383
644.0,0.4376
645.0,0.4379
646.0,0.4256
647.0,0.4158
648.0,0.4163
649.0,0.4076
650.0,0.4158
651.0,0.4349
652.0,0.4107
653.0,0.4295
654.0,0.4252
655.0,0.4062
656.0,0.3622
657.0,0.3724
658.0,0.4192
659.0,0.423
660.0,0.4253
661.0,0.4285
662.0,0.4282
663.0,0.4202
664.0,0.4269
665.0,0.4286
666.0,0.4294
667.0,0.4297
668.0,0.4306
669.0,0.4377
670.0,0.4361
671.0,0.4364
672.0,0.4329
673.0,0.4397
674.0,0.4384
675.0,0.4347
676.0,0.4379
677.0,0.4338
678.0,0.4353
679.0,0.4285
680.0,0.4321
681.0,0.4293
682.0,0.4288
683.0,0.4281
684.0,0.4259
685.0,0.4299
686.0,0.427
687.0,0.2135
688.0,0.2803
689.0,0.2824
690.0,0.3073
691.0,0.3366
692.0,0.3599
693.0,0.3562
694.0,0.3547
695.0,0.3785
696.0,0.3795
697.0,0.4131
698.0,0.4065
699.0,0.3896
700.0,0.3846
701.0,0.3779
702.0,0.3833
703.0,0.3847
704.0,0.4013
705.0,0.4018
706.0,0.4031
707.0,0.4041
708.0,0.4048
709.0,0.4083
710.0,0.4067
711.0,0.4073
712.0,0.4074
713.0,0.402
714.0,0.4039
715.0,0.3882
716.0,0.3877
717.0,0.3104
718.0,0.2829
719.0,0.2571
720.0,0.2667
721.0,0.309
722.0,0.3695
723.0,0.3361
724.0,0.2931
725.0,0.2853
726.0,0.2995
727.0,0.3103
728.0,0.2834
729.0,0.303
730.0,0.3187
731.0,0.3032
732.0,0.3338
733.0,0.3621
734.0,0.3735
735.0,0.3643
736.0,0.3634
737.0,0.365
738.0,0.3775
739.0,0.3702
740.0,0.3819
741.0,0.3793
742.0,0.381
743.0,0.3911
744.0,0.3908
745.0,0.3915
746.0,0.3933
747.0,0.3944
748.0,0.3936
749.0,0.3892
750.0,0.389
751.0,0.3851
752.0,0.3869
753.0,0.3889
754.0,0.3898
755.0,0.3876
756.0,0.3875
757.0,0.388
758.0,0.383
759.0,0.3708
760.0,0.01852
761.0,0.006595
762.0,0.1207
763.0,0.03723
764.0,0.07384
765.0,0.1205
766.0,0.1756
767.0,0.2548
768.0,0.3244
769.0,0.3385
770.0,0.3584
771.0,0.3651
772.0,0.3671
773.0,0.3699
774.0,0.3684
775.0,0.3658
776.0,0.3704
777.0,0.3655
778.0,0.3633
779.0,0.3636
780.0,0.3616
781.0,0.362
782.0,0.3644
783.0,0.3581
784.0,0.36
785.0,0.357
786.0,0.3607
787.0,0.351
788.0,0.3451
789.0,0.3448
790.0,0.3311
791.0,0.3385
792.0,0.3367
793.0,0.3308
794.0,0.3411
795.0,0.3455
796.0,0.3285
797.0,0.3284
798.0,0.3444
799.0,0.341
800.0,0.3336
801.0,0.331
802.0,0.33
803.0,0.3266
804.0,0.3278
805.0,0.3287
806.0,0.3412
807.0,0.3363
808.0,0.3369
809.0,0.3281
810.0,0.3239
811.0,0.321
812.0,0.3074
813.0,0.2992
814.0,0.2512
815.0,0.2505
816.0,0.2316
817.0,0.2366
818.0,0.225
819.0,0.2618
820.0,0.2429
821.0,0.2992
822.0,0.2882
823.0,0.1733
824.0,0.274
825.0,0.2941
826.0,0.2779
827.0,0.2984
828.0,0.2384
829.0,0.2773
830.0,0.2725
831.0,0.2735
832.0,0.2625
833.0,0.286
834.0,0.2713
835.0,0.3088
836.0,0.2883
837.0,0.3099
838.0,0.2965
839.0,0.3058
840.0,0.3134
841.0,0.3074
842.0,0.3105
843.0,0.3129
844.0,0.3072
845.0,0.3194
846.0,0.3184
847.0,0.3133
848.0,0.3102
849.0,0.3014
850.0,0.2888
851.0,0.3046
852.0,0.3031
853.0,0.2926
854.0,0.2519
855.0,0.2779
856.0,0.3032
857.0,0.3107
858.0,0.3081
859.0,0.3089
860.0,0.3098
861.0,0.308
862.0,0.313
863.0,0.3204
864.0,0.3044
865.0,0.3019
866.0,0.2714
867.0,0.2833
868.0,0.3083
869.0,0.302
870.0,0.3106
871.0,0.3064
872.0,0.3054
873.0,0.3048
874.0,0.3012
875.0,0.295
876.0,0.298
877.0,0.3011
878.0,0.3042
879.0,0.2996
880.0,0.2931
881.0,0.2882
882.0,0.2942
883.0,0.2957
884.0,0.2941
885.0,0.2963
886.0,0.2803
887.0,0.2849
888.0,0.2883
889.0,0.2932
890.0,0.2886
891.0,0.2892
892.0,0.278
893.0,0.2667
894.0,0.2513
895.0,0.2301
896.0,0.2149
897.0,0.1762
898.0,0.1964
899.0,0.1401
900.0,0.2065
901.0,0.1468
902.0,0.1846
903.0,0.182
904.0,0.2493
905.0,0.2381
906.0,0.2205
907.0,0.1655
908.0,0.1715
909.0,0.191
910.0,0.1588
911.0,0.1769
912.0,0.1856
913.0,0.1606
914.0,0.1614
915.0,0.1741
916.0,0.146
917.0,0.1951
918.0,0.1488
919.0,0.2022
920.0,0.2119
921.0,0.2199
922.0,0.1891
923.0,0.2133
924.0,0.1918
925.0,0.1881
926.0,0.1889
927.0,0.2188
928.0,0.1394
929.0,0.1218
930.0,0.08724
931.0,0.08281
932.0,0.05142
933.0,0.0384
934.0,0.01455
935.0,0.04193
936.0,0.02172
937.0,0.02183
938.0,0.02839
939.0,0.08001
940.0,0.1026
941.0,0.06953
942.0,0.08454
943.0,0.04974
944.0,0.05834
945.0,0.07343
946.0,0.02974
947.0,0.07164
948.0,0.0519
949.0,0.1037
950.0,0.01869
951.0,0.1031
952.0,0.04587
953.0,0.06554
954.0,0.08766
955.0,0.06708
956.0,0.07257
957.0,0.04542
958.0,0.111
959.0,0.07886
960.0,0.08841
961.0,0.1067
962.0,0.1006
963.0,0.1225
964.0,0.1104
965.0,0.1219
966.0,0.1211
967.0,0.1195
968.0,0.1868
969.0,0.1911
970.0,0.1731
971.0,0.2099
972.0,0.1982
973.0,0.1607
974.0,0.1516
975.0,0.1612
976.0,0.1464
977.0,0.1805
978.0,0.1657
979.0,0.1768
980.0,0.1646
981.0,0.209
982.0,0.1954
983.0,0.1853
984.0,0.2209
985.0,0.1945
986.0,0.2282
987.0,0.2198
988.0,0.2198
989.0,0.2298
990.0,0.2183
991.0,0.2301
992.0,0.2318
993.0,0.2227
994.0,0.2322
995.0,0.2325
996.0,0.2308
997.0,0.2315
998.0,0.2301
999.0,0.2295
1000.0,0.2269
1001.0,0.2308
1002.0,0.2205
1003.0,0.2265
1004.0,0.2199
1005.0,0.2133
1006.0,0.2209
1007.0,0.226
1008.0,0.2241
1009.0,0.2221
1010.0,0.2207
1011.0,0.2249
1012.0,0.2222
1013.0,0.2246
1014.0,0.223
1015.0,0.2214
1016.0,0.2204
1017.0,0.2207
1018.0,0.2204
1019.0,0.2142
1020.0,0.219
1021.0,0.219
1022.0,0.2167
1023.0,0.2189
1024.0,0.2145
1025.0,0.2193
1026.0,0.218
1027.0,0.2176
1028.0,0.217
1029.0,0.2142
1030.0,0.2163
1031.0,0.2152
1032.0,0.2147
1033.0,0.2115
1034.0,0.2115
1035.0,0.2122
1036.0,0.2131
1037.0,0.2097
1038.0,0.2106
1039.0,0.2104
1040.0,0.2095
1041.0,0.2102
1042.0,0.2087
1043.0,0.2079
1044.0,0.2086
1045.0,0.2057
1046.0,0.2033
1047.0,0.205
1048.0,0.206
1049.0,0.2051
1050.0,0.2041
1051.0,0.2036
1052.0,0.2026
1053.0,0.2008
1054.0,0.2011
1055.0,0.2009
1056.0,0.2
1057.0,0.1991
1058.0,0.194
1059.0,0.194
1060.0,0.1936
1061.0,0.1932
1062.0,0.194
1063.0,0.1919
1064.0,0.1942
1065.0,0.1922
1066.0,0.1889
1067.0,0.1912
1068.0,0.1866
1069.0,0.1812
1070.0,0.1869
1071.0,0.1912
1072.0,0.188
1073.0,0.1854
1074.0,0.1918
1075.0,0.1783
1076.0,0.1914
1077.0,0.1858
1078.0,0.1813
1079.0,0.189
1080.0,0.183
1081.0,0.1751
1082.0,0.1813
1083.0,0.1828
1084.0,0.174
1085.0,0.1838
1086.0,0.1626
1087.0,0.1712
1088.0,0.182
1089.0,0.1726
1090.0,0.1669
1091.0,0.1804
1092.0,0.1806
1093.0,0.1433
1094.0,0.164
1095.0,0.1498
1096.0,0.1408
1097.0,0.1765
1098.0,0.1371
1099.0,0.1445
1100.0,0.1306
1101.0,0.1336
1102.0,0.1249
1103.0,0.1218
1104.0,0.1223
1105.0,0.1404
1106.0,0.09233
1107.0,0.1305
1108.0,0.1017
1109.0,0.1034
1110.0,0.1275
1111.0,0.0747
1112.0,0.1032
1113.0,0.05456
1114.0,0.06144
1115.0,0.05008
1116.0,0.03436
1117.0,0.007998
1118.0,0.03868
1119.0,0.01483
1120.0,0.01803
1121.0,0.02612
1122.0,0.007765
1123.0,0.01647
1124.0,0.01383
1125.0,0.01913
1126.0,0.003754
1127.0,0.02188
1128.0,0.009616
1129.0,0.01052
1130.0,0.006319
1131.0,0.05175
1132.0,0.0385
1133.0,0.01899
1134.0,0.002818
1135.0,0.001191
1136.0,0.01411
1137.0,0.04866
1138.0,0.03325
1139.0,0.06223
1140.0,0.04708
1141.0,0.03176
1142.0,0.03875
1143.0,0.06066
1144.0,0.01585
1145.0,0.01829
1146.0,0.01967
1147.0,0.004126
1148.0,0.0517
1149.0,0.03782
1150.0,0.01819
1151.0,0.03299
1152.0,0.04476
1153.0,0.04701
1154.0,0.01806
1155.0,0.06475
1156.0,0.05566
1157.0,0.06798
1158.0,0.06703
1159.0,0.07508
1160.0,0.06192
1161.0,0.0837
1162.0,0.08332
1163.0,0.1265
1164.0,0.1036
1165.0,0.09269
1166.0,0.09622
1167.0,0.1072
1168.0,0.1072
1169.0,0.1111
1170.0,0.1251
1171.0,0.1219
1172.0,0.127
1173.0,0.125
1174.0,0.07954
1175.0,0.1247
1176.0,0.1431
1177.0,0.1332
1178.0,0.09264
1179.0,0.1443
1180.0,0.1223
1181.0,0.1265
1182.0,0.07885
1183.0,0.1258
1184.0,0.1151
1185.0,0.1084
1186.0,0.1374
1187.0,0.128
1188.0,0.07862
1189.0,0.1188
1190.0,0.1349
1191.0,0.1223
1192.0,0.1373
1193.0,0.1297
1194.0,0.1349
1195.0,0.1237
1196.0,0.117
1197.0,0.1366
1198.0,0.1232
1199.0,0.09685
1200.0,0.1279
1201.0,0.1204
1202.0,0.1222
1203.0,0.1197
1204.0,0.1014
1205.0,0.1273
1206.0,0.1445
1207.0,0.1207
1208.0,0.1213
1209.0,0.1242
1210.0,0.1312
1211.0,0.1221
1212.0,0.1162
1213.0,0.1376
1214.0,0.1206
1215.0,0.1179
1216.0,0.1376
1217.0,0.1325
1218.0,0.1363
1219.0,0.1337
1220.0,0.1366
1221.0,0.1389
1222.0,0.1347
1223.0,0.1327
1224.0,0.1303
1225.0,0.1378
1226.0,0.1399
1227.0,0.1249
1228.0,0.1416
1229.0,0.1399
1230.0,0.1368
1231.0,0.1434
1232.0,0.1425
1233.0,0.1339
1234.0,0.1441
1235.0,0.1426
1236.0,0.1441
1237.0,0.1406
1238.0,0.1437
1239.0,0.1418
1240.0,0.1425
1241.0,0.1409
1242.0,0.1414
1243.0,0.1403
1244.0,0.141
1245.0,0.1418
1246.0,0.141
1247.0,0.1402
1248.0,0.1396
1249.0,0.1405
1250.0,0.1394
1251.0,0.137
1252.0,0.1378
1253.0,0.1353
1254.0,0.1329
1255.0,0.1373
1256.0,0.1309
1257.0,0.1297
1258.0,0.1341
1259.0,0.1254
1260.0,0.1266
1261.0,0.1148
1262.0,0.109
1263.0,0.1091
1264.0,0.0954
1265.0,0.1085
1266.0,0.1012
1267.0,0.1052
1268.0,0.09629
1269.0,0.04116
1270.0,0.1039
1271.0,0.115
1272.0,0.1159
1273.0,0.1141
1274.0,0.1152
1275.0,0.1177
1276.0,0.1198
1277.0,0.1218
1278.0,0.126
1279.0,0.1247
1280.0,0.1233
1281.0,0.1185
1282.0,0.1156
1283.0,0.1242
1284.0,0.1269
1285.0,0.128
1286.0,0.1305
1287.0,0.1271
1288.0,0.1275
1289.0,0.1205
1290.0,0.1265
1291.0,0.1288
1292.0,0.1158
1293.0,0.1251
1294.0,0.124
1295.0,0.1216
1296.0,0.113
1297.0,0.1046
1298.0,0.1176
1299.0,0.1257
1300.0,0.0984
1301.0,0.1028
1302.0,0.1173
1303.0,0.09789
1304.0,0.07636
1305.0,0.1145
1306.0,0.1137
1307.0,0.08065
1308.0,0.09931
1309.0,0.1116
1310.0,0.07845
1311.0,0.09351
1312.0,0.09
1313.0,0.0865
1314.0,0.07484
1315.0,0.0723
1316.0,0.09064
1317.0,0.08483
1318.0,0.0953
1319.0,0.06602
1320.0,0.0656
1321.0,0.07943
1322.0,0.0786
1323.0,0.05244
1324.0,0.0651
1325.0,0.0884
1326.0,0.07168
1327.0,0.06715
1328.0,0.05554
1329.0,0.03604
1330.0,0.04993
1331.0,0.02433
1332.0,0.02674
1333.0,0.0383
1334.0,0.03636
1335.0,0.05166
1336.0,0.0374
1337.0,0.03221
1338.0,0.03445
1339.0,0.03507
1340.0,0.03586
1341.0,0.03086
1342.0,0.03297
1343.0,0.01617
1344.0,0.01028
1345.0,0.01438
1346.0,0.004382
1347.0,0.004023
1348.0,9.682e-05
1349.0,0.0004354
1350.0,0.0005285
1351.0,5.152e-05
1352.0,4.383e-06
1353.0,1.168e-07
1354.0,6.877e-07
1355.0,1.743e-09
1356.0,5.64e-08
1357.0,8.501e-08
1358.0,2.097e-09
1359.0,2.109e-10
1360.0,8.422e-10
1361.0,8.227e-13
1362.0,2.246e-15
1363.0,1.037e-09
1364.0,4.36e-10
1365.0,7.836e-16
1366.0,4.646e-09
1367.0,2.068e-09
1368.0,6.05e-18
1369.0,1.609e-10
1370.0,7.611e-11
1371.0,4.244e-12
1372.0,1.141e-09
1373.0,3.164e-08
1374.0,2.268e-07
1375.0,3.484e-07
1376.0,6.413e-07
1377.0,2.642e-07
1378.0,2.756e-06
1379.0,1.156e-07
1380.0,1.04e-07
1381.0,2.345e-09
1382.0,9.64e-10
1383.0,1.377e-11
1384.0,1.707e-10
1385.0,1.154e-09
1386.0,7.921e-10
1387.0,1.518e-07
1388.0,4.023e-09
1389.0,9.901e-07
1390.0,7.76e-07
1391.0,5.079e-07
1392.0,3.293e-08
1393.0,2.287e-07
1394.0,4.671e-08
1395.0,2.889e-10
1396.0,1.074e-12
1397.0,7.262e-08
1398.0,2.698e-06
1399.0,1.83e-06
1400.0,4.574e-13
1401.0,1.911e-12
1402.0,1.798e-05
1403.0,1.695e-05
1404.0,4.43e-06
1405.0,1.206e-10
1406.0,7.313e-06
1407.0,1.225e-06
1408.0,6.576e-06
1409.0,1.208e-06
1410.0,1.783e-06
1411.0,1.588e-05
1412.0,2.996e-05
1413.0,0.0006698
1414.0,1.57e-06
1415.0,5.826e-07
1416.0,0.00218
1417.0,0.0004018
1418.0,0.0003368
1419.0,4.665e-05
1420.0,0.0002023
1421.0,0.0002763
1422.0,0.002844
1423.0,0.0005041
1424.0,0.001083
1425.0,0.001327
1426.0,0.00202
1427.0,0.0047
1428.0,8.014e-05
1429.0,0.002853
