interpolation:linear
wavelength,value
280.0,1.962e-21
280.5,6.218000000000001e-20
281.0,3.293e-19
281.5,4.223e-19
282.0,1.024e-18
282.5,2.626e-18
283.0,8.395e-18
283.5,1.369e-17
284.0,2.222e-16
284.5,6.418e-16
285.0,1.392e-15
285.5,6.684e-15
286.0,2.667e-14
286.5,1.175e-13
287.0,3.323e-13
287.5,1.258e-12
288.0,3.537e-12
288.5,1.146e-11
289.0,3.192e-11
289.5,9.955e-11
290.0,2.816e-10
290.5,5.816e-10
291.0,1.263e-09
291.5,3.661e-09
292.0,7.522e-09
292.5,1.115e-08
293.0,2.559e-08
293.5,6.813e-08
294.0,1.134e-07
294.5,1.472e-07
295.0,2.644e-07
295.5,6.51e-07
296.0,1.283e-06
296.5,1.87e-06
297.0,2.627e-06
297.5,7.508e-06
298.0,1.258e-05
298.5,1.333e-05
299.0,3.102e-05
299.5,5.713e-05
300.0,6.702e-05
300.5,0.0001043
301.0,0.0002149
301.5,0.0003951
302.0,0.0003689
302.5,0.0007338
303.0,0.00135
303.5,0.001727
304.0,0.001642
304.5,0.002524
305.0,0.003983
305.5,0.004677
306.0,0.00457
306.5,0.005781
307.0,0.008868
307.5,0.01217
308.0,0.01292
308.5,0.01549
309.0,0.01536
309.5,0.01788
310.0,0.01812
310.5,0.02947
311.0,0.03724
311.5,0.03606
312.0,0.03658
312.5,0.04493
313.0,0.04898
313.5,0.04736
314.0,0.05988
314.5,0.05387
315.0,0.07098
315.5,0.05899
316.0,0.05212
316.5,0.07559
317.0,0.09384
317.5,0.09742
318.0,0.07651
318.5,0.09619
319.0,0.1149
319.5,0.09274
320.0,0.1119
320.5,0.1418
321.0,0.1277
321.5,0.1226
322.0,0.1292
322.5,0.1125
323.0,0.1129
323.5,0.1396
324.0,0.1632
324.5,0.1653
325.0,0.1423
325.5,0.1841
326.0,0.2255
326.5,0.2267
327.0,0.2257
327.5,0.2177
328.0,0.193
328.5,0.204
329.0,0.2454
329.5,0.279
330.0,0.2812
330.5,0.2244
331.0,0.2284
331.5,0.2328
332.0,0.2524
332.5,0.2501
333.0,0.2492
333.5,0.2251
334.0,0.2305
334.5,0.2669
335.0,0.2513
335.5,0.2936
336.0,0.2032
336.5,0.2378
337.0,0.1949
337.5,0.2424
338.0,0.2373
338.5,0.274
339.0,0.2714
339.5,0.2611
340.0,0.3069
340.5,0.2767
341.0,0.27
341.5,0.248
342.0,0.2965
342.5,0.2775
343.0,0.3053
343.5,0.2875
344.0,0.2125
344.5,0.2147
345.0,0.2843
345.5,0.2904
346.0,0.2469
346.5,0.2797
347.0,0.3004
347.5,0.2429
348.0,0.2771
348.5,0.2771
349.0,0.2571
349.5,0.2547
350.0,0.3152
350.5,0.3325
351.0,0.2971
351.5,0.2888
352.0,0.3103
352.5,0.2423
353.0,0.3053
353.5,0.3266
354.0,0.3392
354.5,0.3441
355.0,0.343
355.5,0.31
356.0,0.3245
356.5,0.2771
357.0,0.229
357.5,0.2805
358.0,0.2223
358.5,0.19
359.0,0.2659
359.5,0.3389
360.0,0.3593
360.5,0.2873
361.0,0.262
361.5,0.3019
362.0,0.2612
362.5,0.3617
363.0,0.325
363.5,0.2996
364.0,0.3665
364.5,0.3134
365.0,0.3193
365.5,0.4009
366.0,0.4249
366.5,0.3994
367.0,0.3891
367.5,0.4039
368.0,0.3536
368.5,0.357
369.0,0.3856
369.5,0.4112
370.0,0.4385
370.5,0.3405
371.0,0.364
371.5,0.4555
372.0,0.3024
372.5,0.3627
373.0,0.3691
373.5,0.2403
374.0,0.3492
374.5,0.2893
375.0,0.2814
375.5,0.4202
376.0,0.3484
376.5,0.3612
377.0,0.3825
377.5,0.4477
378.0,0.4854
378.5,0.4589
379.0,0.3788
379.5,0.3461
380.0,0.3599
380.5,0.4361
381.0,0.4373
381.5,0.3468
382.0,0.3081
382.5,0.2628
383.0,0.2434
383.5,0.2345
384.0,0.2588
384.5,0.3808
385.0,0.3778
385.5,0.352
386.0,0.3016
386.5,0.3963
387.0,0.3294
387.5,0.3701
388.0,0.3418
388.5,0.338
389.0,0.365
389.5,0.4422
390.0,0.444
390.5,0.4087
391.0,0.4813
391.5,0.491
392.0,0.4137
392.5,0.3705
393.0,0.2063
393.5,0.15
394.0,0.3053
394.5,0.3883
395.0,0.4739
395.5,0.4815
396.0,0.4176
396.5,0.2443
397.0,0.1834
397.5,0.373
398.0,0.5225
398.5,0.5402
399.0,0.5853
399.5,0.5835
400.0,0.606
401.0,0.6139
402.0,0.6481
403.0,0.6161
404.0,0.607
405.0,0.6072
406.0,0.5977
407.0,0.5885
408.0,0.6116
409.0,0.655
410.0,0.5726
411.0,0.6206
412.0,0.6671
413.0,0.6507
414.0,0.6591
415.0,0.6612
416.0,0.6732
417.0,0.6569
418.0,0.645
419.0,0.6538
420.0,0.6512
421.0,0.6816
422.0,0.6481
423.0,0.6334
424.0,0.6701
425.0,0.6692
426.0,0.6523
427.0,0.6403
428.0,0.6239
429.0,0.5914
430.0,0.5178
431.0,0.5133
432.0,0.6631
433.0,0.667
434.0,0.6195
435.0,0.6471
436.0,0.7295
437.0,0.7201
438.0,0.656
439.0,0.6784
440.0,0.7003
441.0,0.726
442.0,0.7788
443.0,0.7585
444.0,0.7753
445.0,0.7586
446.0,0.7244
447.0,0.7836
448.0,0.7957
449.0,0.7994
450.0,0.822
451.0,0.8527
452.0,0.8218
453.0,0.7732
454.0,0.8075
455.0,0.8125
456.0,0.832
457.0,0.846
458.0,0.817
459.0,0.813
460.0,0.8152
461.0,0.8341
462.0,0.8408
463.0,0.8351
464.0,0.8217
465.0,0.8117
466.0,0.8199
467.0,0.8048
468.0,0.8144
469.0,0.8187
470.0,0.7926
471.0,0.7917
472.0,0.8342
473.0,0.8234
474.0,0.8244
475.0,0.8313
476.0,0.8061
477.0,0.8082
478.0,0.8307
479.0,0.8259
480.0,0.8277
481.0,0.8435
482.0,0.8482
483.0,0.8384
484.0,0.8214
485.0,0.7828
486.0,0.6846
487.0,0.7177
488.0,0.7874
489.0,0.7897
490.0,0.831
491.0,0.8169
492.0,0.7715
493.0,0.7968
494.0,0.8048
495.0,0.8117
496.0,0.8168
497.0,0.8294
498.0,0.7906
499.0,0.8007
500.0,0.7772
501.0,0.7627
502.0,0.7516
503.0,0.7818
504.0,0.7607
505.0,0.789
506.0,0.8144
507.0,0.7751
508.0,0.7513
509.0,0.7727
510.0,0.7688
511.0,0.7897
512.0,0.7985
513.0,0.7558
514.0,0.7507
515.0,0.7433
516.0,0.7414
517.0,0.6589
518.0,0.6927
519.0,0.7265
520.0,0.7529
521.0,0.76
522.0,0.7606
523.0,0.7468
524.0,0.7733
525.0,0.7821
526.0,0.7471
527.0,0.7037
528.0,0.7441
529.0,0.7841
530.0,0.7727
531.0,0.7841
532.0,0.7571
533.0,0.735
534.0,0.7568
535.0,0.7735
536.0,0.7807
537.0,0.75
538.0,0.7634
539.0,0.7569
540.0,0.7257
541.0,0.7301
542.0,0.7528
543.0,0.7451
544.0,0.7578
545.0,0.7555
546.0,0.7585
547.0,0.7584
548.0,0.7495
549.0,0.7519
550.0,0.7608
551.0,0.7517
552.0,0.7569
553.0,0.7433
554.0,0.761
555.0,0.7625
556.0,0.7525
557.0,0.729
558.0,0.7233
559.0,0.7096
560.0,0.7184
561.0,0.7275
562.0,0.722
563.0,0.7414
564.0,0.721
565.0,0.7146
566.0,0.7039
567.0,0.717
568.0,0.7099
569.0,0.6918
570.0,0.6918
571.0,0.6879
572.0,0.7036
573.0,0.7109
574.0,0.7085
575.0,0.695
576.0,0.6886
577.0,0.6963
578.0,0.6862
579.0,0.6895
580.0,0.7036
581.0,0.7079
582.0,0.7219
583.0,0.7242
584.0,0.7309
585.0,0.7132
586.0,0.6986
587.0,0.7135
588.0,0.6945
589.0,0.6121
590.0,0.6404
591.0,0.6796
592.0,0.6699
593.0,0.6812
594.0,0.6759
595.0,0.6581
596.0,0.6866
597.0,0.6785
598.0,0.6776
599.0,0.6785
600.0,0.6802
601.0,0.6751
602.0,0.6706
603.0,0.682
604.0,0.6934
605.0,0.69
606.0,0.6874
607.0,0.6945
608.0,0.6871
609.0,0.6886
610.0,0.6839
611.0,0.6876
612.0,0.6858
613.0,0.6773
614.0,0.6683
615.0,0.6831
616.0,0.6608
617.0,0.6596
618.0,0.6851
619.0,0.6782
620.0,0.6825
621.0,0.683
622.0,0.6748
623.0,0.6643
624.0,0.6531
625.0,0.6516
626.0,0.6612
627.0,0.668
628.0,0.6166
629.0,0.6497
630.0,0.6345
631.0,0.6513
632.0,0.6439
633.0,0.6645
634.0,0.6589
635.0,0.6695
636.0,0.6611
637.0,0.6723
638.0,0.6793
639.0,0.672
640.0,0.6658
641.0,0.6657
642.0,0.6629
643.0,0.6719
644.0,0.67
645.0,0.6709
646.0,0.6544
647.0,0.6447
648.0,0.6452
649.0,0.6325
650.0,0.6381
651.0,0.6663
652.0,0.6358
653.0,0.6575
654.0,0.6505
655.0,0.6249
656.0,0.5548
657.0,0.5698
658.0,0.6394
659.0,0.6443
660.0,0.6472
661.0,0.6518
662.0,0.6526
663.0,0.6399
664.0,0.6482
665.0,0.6493
666.0,0.65
667.0,0.6497
668.0,0.6503
669.0,0.6605
670.0,0.6578
671.0,0.6578
672.0,0.6523
673.0,0.6622
674.0,0.6599
675.0,0.654
676.0,0.6586
677.0,0.6521
678.0,0.6541
679.0,0.6436
680.0,0.6488
681.0,0.6446
682.0,0.6438
683.0,0.6426
684.0,0.6393
685.0,0.6449
686.0,0.641
687.0,0.3945
688.0,0.4767
689.0,0.4789
690.0,0.5073
691.0,0.5396
692.0,0.5639
693.0,0.5588
694.0,0.5544
695.0,0.5812
696.0,0.5821
697.0,0.6225
698.0,0.6127
699.0,0.5949
700.0,0.5876
701.0,0.5806
702.0,0.5858
703.0,0.587
704.0,0.6077
705.0,0.6086
706.0,0.6088
707.0,0.6095
708.0,0.6107
709.0,0.6128
710.0,0.6122
711.0,0.6118
712.0,0.6105
713.0,0.6038
714.0,0.6062
715.0,0.5859
716.0,0.5859
717.0,0.4968
718.0,0.4549
719.0,0.4156
720.0,0.4344
721.0,0.4863
722.0,0.5636
723.0,0.521
724.0,0.465
725.0,0.456
726.0,0.4779
727.0,0.4876
728.0,0.4543
729.0,0.4754
730.0,0.5027
731.0,0.4799
732.0,0.5176
733.0,0.5519
734.0,0.5661
735.0,0.5538
736.0,0.5531
737.0,0.5552
738.0,0.5666
739.0,0.5554
740.0,0.5708
741.0,0.5657
742.0,0.5667
743.0,0.5813
744.0,0.58
745.0,0.5804
746.0,0.583
747.0,0.5844
748.0,0.5832
749.0,0.5765
750.0,0.5762
751.0,0.5704
752.0,0.5729
753.0,0.5758
754.0,0.5771
755.0,0.5738
756.0,0.5736
757.0,0.5744
758.0,0.5672
759.0,0.554
760.0,0.06583
761.0,0.03059
762.0,0.2505
763.0,0.1091
764.0,0.1776
765.0,0.2504
766.0,0.3224
767.0,0.4227
768.0,0.5011
769.0,0.5147
770.0,0.5356
771.0,0.5415
772.0,0.5431
773.0,0.547
774.0,0.5445
775.0,0.5404
776.0,0.547
777.0,0.5399
778.0,0.5366
779.0,0.537
780.0,0.534
781.0,0.5346
782.0,0.538
783.0,0.5287
784.0,0.5313
785.0,0.5272
786.0,0.5329
787.0,0.5222
788.0,0.5151
789.0,0.5147
790.0,0.4991
791.0,0.5053
792.0,0.5019
793.0,0.4935
794.0,0.504
795.0,0.512
796.0,0.4935
797.0,0.494
798.0,0.5111
799.0,0.5073
800.0,0.4978
801.0,0.4957
802.0,0.4943
803.0,0.4902
804.0,0.4911
805.0,0.4904
806.0,0.5055
807.0,0.4991
808.0,0.4996
809.0,0.4893
810.0,0.4846
811.0,0.4837
812.0,0.4681
813.0,0.4574
814.0,0.3966
815.0,0.3945
816.0,0.3665
817.0,0.3737
818.0,0.3584
819.0,0.4057
820.0,0.3802
821.0,0.4515
822.0,0.4374
823.0,0.2865
824.0,0.4221
825.0,0.4435
826.0,0.4244
827.0,0.4502
828.0,0.3751
829.0,0.4223
830.0,0.4161
831.0,0.4177
832.0,0.4037
833.0,0.4328
834.0,0.4153
835.0,0.461
836.0,0.4382
837.0,0.4625
838.0,0.4466
839.0,0.4559
840.0,0.4662
841.0,0.459
842.0,0.461
843.0,0.4618
844.0,0.4548
845.0,0.471
846.0,0.4691
847.0,0.4607
848.0,0.4573
849.0,0.4443
850.0,0.4258
851.0,0.4503
852.0,0.4473
853.0,0.431
854.0,0.3718
855.0,0.409
856.0,0.4467
857.0,0.457
858.0,0.4535
859.0,0.4541
860.0,0.4551
861.0,0.4525
862.0,0.4597
863.0,0.4706
864.0,0.4471
865.0,0.4432
866.0,0.3985
867.0,0.4159
868.0,0.4526
869.0,0.4432
870.0,0.4559
871.0,0.4497
872.0,0.4481
873.0,0.4472
874.0,0.4419
875.0,0.4329
876.0,0.4374
877.0,0.4418
878.0,0.4466
879.0,0.4397
880.0,0.4303
881.0,0.4236
882.0,0.4326
883.0,0.4343
884.0,0.4322
885.0,0.4354
886.0,0.4141
887.0,0.4192
888.0,0.4249
889.0,0.4306
890.0,0.426
891.0,0.4258
892.0,0.4122
893.0,0.3979
894.0,0.3811
895.0,0.3565
896.0,0.3347
897.0,0.2831
898.0,0.3112
899.0,0.2316
900.0,0.3215
901.0,0.2428
902.0,0.2919
903.0,0.2924
904.0,0.3782
905.0,0.3638
906.0,0.3393
907.0,0.2687
908.0,0.2752
909.0,0.3011
910.0,0.2607
911.0,0.2816
912.0,0.2953
913.0,0.2643
914.0,0.2631
915.0,0.2852
916.0,0.2402
917.0,0.3107
918.0,0.246
919.0,0.3181
920.0,0.3249
921.0,0.3381
922.0,0.2981
923.0,0.327
924.0,0.3048
925.0,0.2983
926.0,0.3012
927.0,0.3413
928.0,0.2386
929.0,0.2146
930.0,0.1636
931.0,0.1555
932.0,0.1068
933.0,0.08427
934.0,0.041
935.0,0.0883
936.0,0.05176
937.0,0.05216
938.0,0.06542
939.0,0.1506
940.0,0.1849
941.0,0.1346
942.0,0.1588
943.0,0.1006
944.0,0.1096
945.0,0.1398
946.0,0.06598
947.0,0.1391
948.0,0.1015
949.0,0.1912
950.0,0.04564
951.0,0.1892
952.0,0.09496
953.0,0.1271
954.0,0.1608
955.0,0.1291
956.0,0.1289
957.0,0.09457
958.0,0.1891
959.0,0.1444
960.0,0.1619
961.0,0.1863
962.0,0.1758
963.0,0.2067
964.0,0.1881
965.0,0.2062
966.0,0.2053
967.0,0.204
968.0,0.2883
969.0,0.2994
970.0,0.2733
971.0,0.3193
972.0,0.3042
973.0,0.2583
974.0,0.2443
975.0,0.2561
976.0,0.2395
977.0,0.2798
978.0,0.2628
979.0,0.2773
980.0,0.2595
981.0,0.3177
982.0,0.3014
983.0,0.288
984.0,0.3302
985.0,0.3002
986.0,0.3377
987.0,0.329
988.0,0.3286
989.0,0.3378
990.0,0.3265
991.0,0.3386
992.0,0.3407
993.0,0.3312
994.0,0.3408
995.0,0.3407
996.0,0.3389
997.0,0.3395
998.0,0.3378
999.0,0.3367
1000.0,0.3338
1001.0,0.3385
1002.0,0.3273
1003.0,0.3324
1004.0,0.3238
1005.0,0.3126
1006.0,0.3245
1007.0,0.3315
1008.0,0.3294
1009.0,0.3273
1010.0,0.3257
1011.0,0.3299
1012.0,0.3267
1013.0,0.3292
1014.0,0.3269
1015.0,0.3247
1016.0,0.3232
1017.0,0.3239
1018.0,0.323
1019.0,0.3153
1020.0,0.3211
1021.0,0.3208
1022.0,0.3181
1023.0,0.3214
1024.0,0.3165
1025.0,0.3214
1026.0,0.3199
1027.0,0.3192
1028.0,0.3184
1029.0,0.3146
1030.0,0.317
1031.0,0.3156
1032.0,0.3148
1033.0,0.3101
1034.0,0.3101
1035.0,0.3111
1036.0,0.3126
1037.0,0.3075
1038.0,0.3089
1039.0,0.3086
1040.0,0.3074
1041.0,0.3085
1042.0,0.3064
1043.0,0.3054
1044.0,0.3064
1045.0,0.3022
1046.0,0.2988
1047.0,0.3014
1048.0,0.303
1049.0,0.3019
1050.0,0.3004
1051.0,0.2999
1052.0,0.2986
1053.0,0.2962
1054.0,0.2967
1055.0,0.2968
1056.0,0.2956
1057.0,0.2946
1058.0,0.2873
1059.0,0.2874
1060.0,0.2869
1061.0,0.2865
1062.0,0.2879
1063.0,0.285
1064.0,0.2884
1065.0,0.286
1066.0,0.2806
1067.0,0.2841
1068.0,0.2777
1069.0,0.2693
1070.0,0.2783
1071.0,0.2833
1072.0,0.2795
1073.0,0.2756
1074.0,0.2834
1075.0,0.2672
1076.0,0.2831
1077.0,0.2769
1078.0,0.2712
1079.0,0.2789
1080.0,0.2727
1081.0,0.2629
1082.0,0.2689
1083.0,0.2701
1084.0,0.2618
1085.0,0.2735
1086.0,0.2467
1087.0,0.2566
1088.0,0.2695
1089.0,0.2593
1090.0,0.2525
1091.0,0.2681
1092.0,0.2678
1093.0,0.2217
1094.0,0.2444
1095.0,0.2316
1096.0,0.2202
1097.0,0.2617
1098.0,0.216
1099.0,0.2262
1100.0,0.2081
1101.0,0.2114
1102.0,0.2004
1103.0,0.1974
1104.0,0.1978
1105.0,0.2206
1106.0,0.16
1107.0,0.2078
1108.0,0.1709
1109.0,0.1723
1110.0,0.2051
1111.0,0.1322
1112.0,0.1713
1113.0,0.1021
1114.0,0.1147
1115.0,0.09469
1116.0,0.07163
1117.0,0.02237
1118.0,0.07916
1119.0,0.03591
1120.0,0.04485
1121.0,0.06148
1122.0,0.02306
1123.0,0.04068
1124.0,0.03429
1125.0,0.04557
1126.0,0.01316
1127.0,0.05166
1128.0,0.02788
1129.0,0.02995
1130.0,0.01879
1131.0,0.1057
1132.0,0.08143
1133.0,0.04743
1134.0,0.01005
1135.0,0.003899
1136.0,0.03812
1137.0,0.1023
1138.0,0.07131
1139.0,0.1149
1140.0,0.09272
1141.0,0.06785
1142.0,0.0797
1143.0,0.1168
1144.0,0.03685
1145.0,0.0458
1146.0,0.04935
1147.0,0.01462
1148.0,0.1008
1149.0,0.078
1150.0,0.04021
1151.0,0.07073
1152.0,0.09002
1153.0,0.09003
1154.0,0.04421
1155.0,0.1197
1156.0,0.1061
1157.0,0.122
1158.0,0.1207
1159.0,0.1322
1160.0,0.1109
1161.0,0.1413
1162.0,0.1416
1163.0,0.1993
1164.0,0.168
1165.0,0.1557
1166.0,0.1568
1167.0,0.1722
1168.0,0.1734
1169.0,0.1784
1170.0,0.1963
1171.0,0.1912
1172.0,0.1961
1173.0,0.1959
1174.0,0.1343
1175.0,0.1925
1176.0,0.2147
1177.0,0.2041
1178.0,0.1491
1179.0,0.2165
1180.0,0.19
1181.0,0.1962
1182.0,0.1308
1183.0,0.1939
1184.0,0.1802
1185.0,0.1725
1186.0,0.2091
1187.0,0.1978
1188.0,0.1324
1189.0,0.184
1190.0,0.2046
1191.0,0.1916
1192.0,0.2077
1193.0,0.1981
1194.0,0.2048
1195.0,0.1919
1196.0,0.1837
1197.0,0.2058
1198.0,0.1872
1199.0,0.1553
1200.0,0.1955
1201.0,0.1872
1202.0,0.1871
1203.0,0.1851
1204.0,0.16
1205.0,0.1926
1206.0,0.2147
1207.0,0.1861
1208.0,0.1844
1209.0,0.1884
1210.0,0.1972
1211.0,0.1864
1212.0,0.1822
1213.0,0.2067
1214.0,0.1874
1215.0,0.1835
1216.0,0.2062
1217.0,0.2001
1218.0,0.2045
1219.0,0.2016
1220.0,0.2048
1221.0,0.2072
1222.0,0.2015
1223.0,0.1993
1224.0,0.1974
1225.0,0.2058
1226.0,0.2077
1227.0,0.1897
1228.0,0.2092
1229.0,0.2077
1230.0,0.2039
1231.0,0.2109
1232.0,0.2096
1233.0,0.2008
1234.0,0.211
1235.0,0.2095
1236.0,0.2112
1237.0,0.2075
1238.0,0.2105
1239.0,0.2078
1240.0,0.2086
1241.0,0.2072
1242.0,0.2072
1243.0,0.2055
1244.0,0.2068
1245.0,0.2078
1246.0,0.2066
1247.0,0.2057
1248.0,0.2053
1249.0,0.2062
1250.0,0.2048
1251.0,0.2019
1252.0,0.2023
1253.0,0.2001
1254.0,0.1976
1255.0,0.2019
1256.0,0.1952
1257.0,0.1939
1258.0,0.1984
1259.0,0.1896
1260.0,0.1908
1261.0,0.178
1262.0,0.1716
1263.0,0.1719
1264.0,0.1563
1265.0,0.1709
1266.0,0.163
1267.0,0.1668
1268.0,0.1566
1269.0,0.08737
1270.0,0.1658
1271.0,0.1777
1272.0,0.1785
1273.0,0.1764
1274.0,0.1773
1275.0,0.1802
1276.0,0.1823
1277.0,0.184
1278.0,0.1884
1279.0,0.1866
1280.0,0.1843
1281.0,0.1762
1282.0,0.1704
1283.0,0.1834
1284.0,0.1877
1285.0,0.1891
1286.0,0.1919
1287.0,0.1883
1288.0,0.1885
1289.0,0.1813
1290.0,0.1869
1291.0,0.1897
1292.0,0.176
1293.0,0.1855
1294.0,0.1841
1295.0,0.1825
1296.0,0.1728
1297.0,0.1623
1298.0,0.1771
1299.0,0.1859
1300.0,0.1535
1301.0,0.159
1302.0,0.1765
1303.0,0.152
1304.0,0.126
1305.0,0.1727
1306.0,0.1724
1307.0,0.1301
1308.0,0.1528
1309.0,0.1706
1310.0,0.1273
1311.0,0.1457
1312.0,0.1412
1313.0,0.1377
1314.0,0.122
1315.0,0.1196
1316.0,0.1427
1317.0,0.1347
1318.0,0.1479
1319.0,0.1113
1320.0,0.1088
1321.0,0.1282
1322.0,0.1287
1323.0,0.09327
1324.0,0.1093
1325.0,0.1403
1326.0,0.1182
1327.0,0.1121
1328.0,0.09547
1329.0,0.06855
1330.0,0.09083
1331.0,0.05122
1332.0,0.05406
1333.0,0.076
1334.0,0.06641
1335.0,0.09276
1336.0,0.07138
1337.0,0.06229
1338.0,0.06731
1339.0,0.06754
1340.0,0.06672
1341.0,0.06274
1342.0,0.06615
1343.0,0.04039
1344.0,0.02455
1345.0,0.03541
1346.0,0.01507
1347.0,0.01488
1348.0,0.0006838
1349.0,0.002695
1350.0,0.00299
1351.0,0.00053
1352.0,9.857e-05
1353.0,3.562e-06
1354.0,1.57e-05
1355.0,5.924e-08
1356.0,1.709e-06
1357.0,2.614e-06
1358.0,7.237e-08
1359.0,5.075e-09
1360.0,2.687e-08
1361.0,9.239e-12
1362.0,1.639e-14
1363.0,2.911e-08
1364.0,1.22e-08
1365.0,3.215e-15
1366.0,1.482e-07
1367.0,7.023e-08
1368.0,1.083e-17
1369.0,4.476e-09
1370.0,1.725e-09
1371.0,7.466e-11
1372.0,3.909e-08
1373.0,1.154e-06
1374.0,7.014e-06
1375.0,1.226e-05
1376.0,1.436e-05
1377.0,6.234e-06
1378.0,6.671e-05
1379.0,2.621e-06
1380.0,3.15e-06
1381.0,7.219e-08
1382.0,3.275e-08
1383.0,4.096e-10
1384.0,4.548e-09
1385.0,4.16e-08
1386.0,2.435e-08
1387.0,5.994e-06
1388.0,1.258e-07
1389.0,2.805e-05
1390.0,2.372e-05
1391.0,1.519e-05
1392.0,9.317e-07
1393.0,5.674e-06
1394.0,1.843e-06
1395.0,1.041e-08
1396.0,1.556e-11
1397.0,2.036e-06
1398.0,7.215e-05
1399.0,4.649e-05
1400.0,4.897e-12
1401.0,3.131e-11
1402.0,0.0001939
1403.0,0.0002249
1404.0,6.604e-05
1405.0,4.096e-09
1406.0,0.0001498
1407.0,1.517e-05
1408.0,0.0001258
1409.0,3.38e-05
1410.0,3.224e-05
1411.0,0.0002011
1412.0,0.000302
1413.0,0.004173
1414.0,2.626e-05
1415.0,1.141e-05
1416.0,0.008433
1417.0,0.002093
1418.0,0.002251
1419.0,0.0003331
1420.0,0.001365
1421.0,0.00152
1422.0,0.01108
1423.0,0.002041
1424.0,0.003971
1425.0,0.005565
1426.0,0.006939
1427.0,0.01412
1428.0,0.0006207
1429.0,0.009827
1430.0,0.01868
1431.0,0.02101
1432.0,0.0004815
1433.0,0.01271
1434.0,0.006153
1435.0,0.005114
1436.0,0.01143
