interpolation:linear
wavelength,value
280.0,3.5360000000000005e-20
280.5,1.006e-18
281.0,5.141e-18
281.5,4.352e-19
282.0,1.853e-18
282.5,5.22e-18
283.0,1.736e-17
283.5,2.862e-17
284.0,4.524e-16
284.5,1.278e-15
285.0,2.251e-15
285.5,1.35e-14
286.0,5.714e-14
286.5,2.724e-13
287.0,8.034e-13
287.5,3.158e-12
288.0,9.519e-12
288.5,3.726e-11
289.0,1.243e-10
289.5,4.638e-10
290.0,1.509e-09
290.5,3.497e-09
291.0,8.674e-09
291.5,2.96e-08
292.0,8.134e-08
292.5,1.285e-07
293.0,3.206e-07
293.5,9.641e-07
294.0,1.77e-06
294.5,2.327e-06
295.0,4.582e-06
295.5,1.129e-05
296.0,2.163e-05
296.5,3.002e-05
297.0,4.036e-05
297.5,0.000107
298.0,0.0001669
298.5,0.0001666
299.0,0.0003642
299.5,0.0005947
300.0,0.0006485
300.5,0.0009308
301.0,0.001658
301.5,0.002608
302.0,0.002217
302.5,0.004199
303.0,0.00724
303.5,0.008878
304.0,0.008185
304.5,0.01162
305.0,0.01645
305.5,0.01804
306.0,0.01718
306.5,0.02081
307.0,0.02906
307.5,0.03648
308.0,0.03818
308.5,0.04385
309.0,0.04236
309.5,0.04662
310.0,0.046
310.5,0.07383
311.0,0.09127
311.5,0.08753
312.0,0.08467
312.5,0.1008
313.0,0.108
313.5,0.106
314.0,0.1291
314.5,0.1105
315.0,0.1442
315.5,0.1227
316.0,0.1041
316.5,0.1459
317.0,0.1812
317.5,0.1899
318.0,0.1456
318.5,0.1749
319.0,0.2042
319.5,0.1709
320.0,0.2073
320.5,0.2509
321.0,0.2168
321.5,0.2072
322.0,0.2281
322.5,0.198
323.0,0.1931
323.5,0.2326
324.0,0.2706
324.5,0.277
325.0,0.242
325.5,0.306
326.0,0.3721
326.5,0.3684
327.0,0.3687
327.5,0.3579
328.0,0.3235
328.5,0.3339
329.0,0.394
329.5,0.4452
330.0,0.4507
330.5,0.3647
331.0,0.373
331.5,0.3759
332.0,0.4012
332.5,0.3947
333.0,0.3947
333.5,0.3604
334.0,0.3697
334.5,0.4223
335.0,0.3945
335.5,0.4608
336.0,0.3188
336.5,0.3743
337.0,0.3084
337.5,0.3841
338.0,0.3719
338.5,0.4292
339.0,0.4246
339.5,0.4085
340.0,0.4801
340.5,0.4324
341.0,0.4218
341.5,0.3871
342.0,0.4625
342.5,0.4327
343.0,0.4759
343.5,0.4482
344.0,0.3311
344.5,0.3345
345.0,0.4425
345.5,0.4516
346.0,0.3838
346.5,0.4345
347.0,0.4665
347.5,0.3771
348.0,0.4298
348.5,0.4295
349.0,0.3984
349.5,0.3945
350.0,0.4878
350.5,0.5145
351.0,0.4597
351.5,0.4469
352.0,0.4798
352.5,0.3744
353.0,0.4714
353.5,0.5041
354.0,0.5232
354.5,0.5306
355.0,0.5289
355.5,0.4777
356.0,0.4998
356.5,0.4267
357.0,0.3526
357.5,0.4317
358.0,0.3421
358.5,0.2923
359.0,0.4089
359.5,0.5212
360.0,0.5525
360.5,0.4415
361.0,0.4025
361.5,0.4633
362.0,0.4006
362.5,0.5543
363.0,0.4978
363.5,0.4585
364.0,0.5607
364.5,0.4793
365.0,0.4881
365.5,0.6126
366.0,0.649
366.5,0.6097
367.0,0.5938
367.5,0.6162
368.0,0.5392
368.5,0.5441
369.0,0.5876
369.5,0.6263
370.0,0.6676
370.5,0.5181
371.0,0.5536
371.5,0.6926
372.0,0.4597
372.5,0.5512
373.0,0.5607
373.5,0.3648
374.0,0.5301
374.5,0.439
375.0,0.4267
375.5,0.6371
376.0,0.5282
376.5,0.5474
377.0,0.5795
377.5,0.678
378.0,0.735
378.5,0.6947
379.0,0.5733
379.5,0.5238
380.0,0.5446
380.5,0.6596
381.0,0.6609
381.5,0.5239
382.0,0.4652
382.5,0.3966
383.0,0.3671
383.5,0.3536
384.0,0.3901
384.5,0.5737
385.0,0.569
385.5,0.5299
386.0,0.4538
386.5,0.5961
387.0,0.4954
387.5,0.5564
388.0,0.5137
388.5,0.5078
389.0,0.5482
389.5,0.6639
390.0,0.6663
390.5,0.6132
391.0,0.7218
391.5,0.7363
392.0,0.6202
392.5,0.5552
393.0,0.3089
393.5,0.2246
394.0,0.457
394.5,0.581
395.0,0.709
395.5,0.7202
396.0,0.6244
396.5,0.365
397.0,0.2739
397.5,0.5571
398.0,0.7802
398.5,0.8065
399.0,0.8732
399.5,0.8704
400.0,0.9039
401.0,0.9183
402.0,0.9687
403.0,0.9202
404.0,0.906
405.0,0.9059
406.0,0.8911
407.0,0.8766
408.0,0.911
409.0,0.975
410.0,0.8519
411.0,0.9226
412.0,0.9908
413.0,0.9663
414.0,0.9781
415.0,0.9805
416.0,0.9976
417.0,0.9731
418.0,0.955
419.0,0.9675
420.0,0.9633
421.0,1.008
422.0,0.9577
423.0,0.9355
424.0,0.9895
425.0,0.9876
426.0,0.9618
427.0,0.9438
428.0,0.9193
429.0,0.8706
430.0,0.7618
431.0,0.7552
432.0,0.9749
433.0,0.9802
434.0,0.9102
435.0,0.9506
436.0,1.071
437.0,1.056
438.0,0.9617
439.0,0.9949
440.0,1.026
441.0,1.063
442.0,1.14
443.0,1.111
444.0,1.135
445.0,1.11
446.0,1.059
447.0,1.145
448.0,1.163
449.0,1.167
450.0,1.2
451.0,1.244
452.0,1.199
453.0,1.127
454.0,1.176
455.0,1.184
456.0,1.212
457.0,1.232
458.0,1.19
459.0,1.184
460.0,1.187
461.0,1.214
462.0,1.223
463.0,1.215
464.0,1.195
465.0,1.179
466.0,1.19
467.0,1.169
468.0,1.182
469.0,1.189
470.0,1.151
471.0,1.149
472.0,1.211
473.0,1.195
474.0,1.197
475.0,1.208
476.0,1.172
477.0,1.176
478.0,1.208
479.0,1.201
480.0,1.203
481.0,1.225
482.0,1.231
483.0,1.215
484.0,1.19
485.0,1.134
486.0,0.9908
487.0,1.038
488.0,1.139
489.0,1.143
490.0,1.202
491.0,1.181
492.0,1.115
493.0,1.152
494.0,1.163
495.0,1.173
496.0,1.18
497.0,1.198
498.0,1.142
499.0,1.157
500.0,1.124
501.0,1.103
502.0,1.088
503.0,1.133
504.0,1.106
505.0,1.144
506.0,1.181
507.0,1.124
508.0,1.089
509.0,1.119
510.0,1.112
511.0,1.142
512.0,1.154
513.0,1.092
514.0,1.085
515.0,1.074
516.0,1.071
517.0,0.9518
518.0,1.001
519.0,1.05
520.0,1.088
521.0,1.098
522.0,1.099
523.0,1.08
524.0,1.119
525.0,1.132
526.0,1.082
527.0,1.02
528.0,1.079
529.0,1.137
530.0,1.121
531.0,1.138
532.0,1.099
533.0,1.066
534.0,1.098
535.0,1.122
536.0,1.132
537.0,1.087
538.0,1.106
539.0,1.097
540.0,1.052
541.0,1.059
542.0,1.092
543.0,1.081
544.0,1.1
545.0,1.096
546.0,1.101
547.0,1.101
548.0,1.087
549.0,1.09
550.0,1.103
551.0,1.09
552.0,1.097
553.0,1.078
554.0,1.104
555.0,1.106
556.0,1.092
557.0,1.058
558.0,1.05
559.0,1.031
560.0,1.044
561.0,1.058
562.0,1.05
563.0,1.079
564.0,1.05
565.0,1.041
566.0,1.026
567.0,1.046
568.0,1.037
569.0,1.014
570.0,1.014
571.0,1.007
572.0,1.033
573.0,1.044
574.0,1.041
575.0,1.022
576.0,1.012
577.0,1.023
578.0,1.007
579.0,1.011
580.0,1.029
581.0,1.033
582.0,1.052
583.0,1.054
584.0,1.063
585.0,1.037
586.0,1.015
587.0,1.038
588.0,1.015
589.0,0.9028
590.0,0.9438
591.0,0.9964
592.0,0.9852
593.0,0.998
594.0,0.9919
595.0,0.9687
596.0,1.004
597.0,0.9936
598.0,0.9902
599.0,0.9906
600.0,0.9913
601.0,0.9826
602.0,0.9758
603.0,0.9917
604.0,1.008
605.0,1.003
606.0,0.9981
607.0,1.008
608.0,0.9962
609.0,0.9977
610.0,0.9902
611.0,0.9952
612.0,0.9921
613.0,0.9795
614.0,0.9659
615.0,0.9866
616.0,0.9539
617.0,0.9518
618.0,0.9883
619.0,0.9782
620.0,0.9844
621.0,0.9856
622.0,0.9743
623.0,0.9598
624.0,0.9431
625.0,0.9409
626.0,0.9549
627.0,0.9663
628.0,0.9105
629.0,0.9462
630.0,0.9247
631.0,0.9428
632.0,0.931
633.0,0.9582
634.0,0.948
635.0,0.9623
636.0,0.9491
637.0,0.9643
638.0,0.9729
639.0,0.9617
640.0,0.952
641.0,0.9511
642.0,0.9465
643.0,0.9592
644.0,0.9558
645.0,0.9575
646.0,0.9361
647.0,0.9272
648.0,0.9283
649.0,0.9105
650.0,0.9121
651.0,0.951
652.0,0.9145
653.0,0.9383
654.0,0.9276
655.0,0.8946
656.0,0.7918
657.0,0.8129
658.0,0.9102
659.0,0.9163
660.0,0.92
661.0,0.9264
662.0,0.9288
663.0,0.9102
664.0,0.9202
665.0,0.9203
666.0,0.9208
667.0,0.9196
668.0,0.9197
669.0,0.9337
670.0,0.9296
671.0,0.9292
672.0,0.9212
673.0,0.9349
674.0,0.9313
675.0,0.9227
676.0,0.9289
677.0,0.9196
678.0,0.9221
679.0,0.9071
680.0,0.9143
681.0,0.9083
682.0,0.9071
683.0,0.9053
684.0,0.9008
685.0,0.9084
686.0,0.9031
687.0,0.635
688.0,0.7272
689.0,0.7292
690.0,0.7592
691.0,0.7927
692.0,0.8165
693.0,0.8104
694.0,0.8036
695.0,0.8326
696.0,0.8337
697.0,0.8794
698.0,0.8658
699.0,0.8486
700.0,0.8385
701.0,0.8311
702.0,0.8355
703.0,0.837
704.0,0.8617
705.0,0.863
706.0,0.8614
707.0,0.8617
708.0,0.8636
709.0,0.8636
710.0,0.8642
711.0,0.8626
712.0,0.8594
713.0,0.8513
714.0,0.8544
715.0,0.8287
716.0,0.8296
717.0,0.7325
718.0,0.6749
719.0,0.6196
720.0,0.65
721.0,0.7095
722.0,0.803
723.0,0.7521
724.0,0.6828
725.0,0.6736
726.0,0.7042
727.0,0.7112
728.0,0.6725
729.0,0.693
730.0,0.7333
731.0,0.703
732.0,0.7471
733.0,0.7861
734.0,0.8035
735.0,0.7875
736.0,0.7864
737.0,0.7897
738.0,0.7987
739.0,0.7831
740.0,0.8025
741.0,0.7939
742.0,0.7941
743.0,0.8142
744.0,0.8115
745.0,0.8114
746.0,0.8151
747.0,0.8168
748.0,0.8151
749.0,0.8058
750.0,0.8052
751.0,0.7971
752.0,0.8005
753.0,0.8045
754.0,0.8063
755.0,0.8017
756.0,0.8013
757.0,0.8025
758.0,0.7926
759.0,0.7783
760.0,0.1643
761.0,0.09375
762.0,0.4337
763.0,0.2376
764.0,0.3387
765.0,0.4339
766.0,0.5159
767.0,0.6343
768.0,0.7189
769.0,0.7311
770.0,0.7527
771.0,0.7574
772.0,0.7585
773.0,0.7637
774.0,0.7599
775.0,0.7541
776.0,0.7632
777.0,0.7531
778.0,0.7486
779.0,0.7492
780.0,0.745
781.0,0.7457
782.0,0.7503
783.0,0.7372
784.0,0.7407
785.0,0.7354
786.0,0.7436
787.0,0.732
788.0,0.7235
789.0,0.7234
790.0,0.7061
791.0,0.7103
792.0,0.7048
793.0,0.6936
794.0,0.7034
795.0,0.7159
796.0,0.6966
797.0,0.6975
798.0,0.7153
799.0,0.7112
800.0,0.6995
801.0,0.6979
802.0,0.6959
803.0,0.6909
804.0,0.6916
805.0,0.6886
806.0,0.7067
807.0,0.6985
808.0,0.6989
809.0,0.6868
810.0,0.6819
811.0,0.6841
812.0,0.6663
813.0,0.6536
814.0,0.5813
815.0,0.5776
816.0,0.5384
817.0,0.5475
818.0,0.5285
819.0,0.5853
820.0,0.5534
821.0,0.6394
822.0,0.6223
823.0,0.4352
824.0,0.6068
825.0,0.6286
826.0,0.607
827.0,0.6382
828.0,0.5478
829.0,0.6028
830.0,0.5957
831.0,0.5975
832.0,0.5804
833.0,0.6141
834.0,0.5946
835.0,0.6484
836.0,0.6236
837.0,0.65
838.0,0.6311
839.0,0.6399
840.0,0.6536
841.0,0.6449
842.0,0.6454
843.0,0.6441
844.0,0.6357
845.0,0.6564
846.0,0.6534
847.0,0.641
848.0,0.6374
849.0,0.6193
850.0,0.5933
851.0,0.6286
852.0,0.624
853.0,0.6003
854.0,0.5186
855.0,0.5693
856.0,0.6223
857.0,0.636
858.0,0.6314
859.0,0.6318
860.0,0.6328
861.0,0.6294
862.0,0.6392
863.0,0.6543
864.0,0.6216
865.0,0.6161
866.0,0.554
867.0,0.5781
868.0,0.6291
869.0,0.616
870.0,0.6335
871.0,0.6249
872.0,0.6227
873.0,0.6215
874.0,0.614
875.0,0.6016
876.0,0.6079
877.0,0.614
878.0,0.6207
879.0,0.6112
880.0,0.5981
881.0,0.5893
882.0,0.6021
883.0,0.6038
884.0,0.6011
885.0,0.6057
886.0,0.5779
887.0,0.5835
888.0,0.5924
889.0,0.5986
890.0,0.5942
891.0,0.5929
892.0,0.5766
893.0,0.5596
894.0,0.5419
895.0,0.5145
896.0,0.4857
897.0,0.4206
898.0,0.457
899.0,0.3517
900.0,0.4659
901.0,0.3685
902.0,0.427
903.0,0.433
904.0,0.5378
905.0,0.5203
906.0,0.4878
907.0,0.4013
908.0,0.4086
909.0,0.4402
910.0,0.3935
911.0,0.4169
912.0,0.4349
913.0,0.3996
914.0,0.3954
915.0,0.4283
916.0,0.3637
917.0,0.4571
918.0,0.3731
919.0,0.4643
920.0,0.4668
921.0,0.4851
922.0,0.4366
923.0,0.4684
924.0,0.4477
925.0,0.4381
926.0,0.4429
927.0,0.493
928.0,0.3697
929.0,0.3396
930.0,0.2701
931.0,0.2554
932.0,0.1873
933.0,0.1539
934.0,0.08811
935.0,0.1561
936.0,0.09976
937.0,0.1014
938.0,0.1238
939.0,0.2475
940.0,0.2954
941.0,0.2261
942.0,0.2598
943.0,0.1733
944.0,0.1803
945.0,0.2325
946.0,0.1215
947.0,0.2344
948.0,0.1727
949.0,0.3106
950.0,0.09119
951.0,0.3053
952.0,0.1682
953.0,0.2145
954.0,0.26
955.0,0.2166
956.0,0.2087
957.0,0.1688
958.0,0.2915
959.0,0.2349
960.0,0.2632
961.0,0.2929
962.0,0.2774
963.0,0.3176
964.0,0.2917
965.0,0.3162
966.0,0.3168
967.0,0.3157
968.0,0.4157
969.0,0.4348
970.0,0.4003
971.0,0.4549
972.0,0.4358
973.0,0.3828
974.0,0.3638
975.0,0.3763
976.0,0.3591
977.0,0.4051
978.0,0.3863
979.0,0.4036
980.0,0.3801
981.0,0.4521
982.0,0.4335
983.0,0.4169
984.0,0.4645
985.0,0.4319
986.0,0.4719
987.0,0.4636
988.0,0.4627
989.0,0.4699
990.0,0.4599
991.0,0.4714
992.0,0.4741
993.0,0.4644
994.0,0.4739
995.0,0.4731
996.0,0.4712
997.0,0.4718
998.0,0.4696
999.0,0.4679
1000.0,0.4648
1001.0,0.4704
1002.0,0.4582
1003.0,0.4621
1004.0,0.451
1005.0,0.4342
1006.0,0.4513
1007.0,0.4608
1008.0,0.4584
1009.0,0.4561
1010.0,0.4543
1011.0,0.4584
1012.0,0.4546
1013.0,0.4573
1014.0,0.4541
1015.0,0.4511
1016.0,0.4491
1017.0,0.4502
1018.0,0.4485
1019.0,0.4392
1020.0,0.4461
1021.0,0.4455
1022.0,0.4421
1023.0,0.4468
1024.0,0.4413
1025.0,0.4464
1026.0,0.4446
1027.0,0.4435
1028.0,0.4426
1029.0,0.4374
1030.0,0.4403
1031.0,0.4386
1032.0,0.4373
1033.0,0.4307
1034.0,0.4307
1035.0,0.4321
1036.0,0.4343
1037.0,0.4273
1038.0,0.4292
1039.0,0.4289
1040.0,0.4272
1041.0,0.4289
1042.0,0.4259
1043.0,0.4246
1044.0,0.4261
1045.0,0.4204
1046.0,0.4157
1047.0,0.4195
1048.0,0.4218
1049.0,0.4203
1050.0,0.4184
1051.0,0.4179
1052.0,0.4162
1053.0,0.4129
1054.0,0.4139
1055.0,0.4141
1056.0,0.4127
1057.0,0.4115
1058.0,0.4014
1059.0,0.4019
1060.0,0.4013
1061.0,0.4009
1062.0,0.403
1063.0,0.3991
1064.0,0.4038
1065.0,0.401
1066.0,0.393
1067.0,0.3981
1068.0,0.3895
1069.0,0.3774
1070.0,0.3903
1071.0,0.3961
1072.0,0.3917
1073.0,0.386
1074.0,0.3957
1075.0,0.3767
1076.0,0.3954
1077.0,0.3888
1078.0,0.3816
1079.0,0.3889
1080.0,0.3828
1081.0,0.371
1082.0,0.3762
1083.0,0.3772
1084.0,0.3703
1085.0,0.3836
1086.0,0.3514
1087.0,0.3617
1088.0,0.3769
1089.0,0.3662
1090.0,0.3587
1091.0,0.3759
1092.0,0.3748
1093.0,0.3202
1094.0,0.3432
1095.0,0.3333
1096.0,0.3199
1097.0,0.3661
1098.0,0.3152
1099.0,0.3284
1100.0,0.3063
1101.0,0.3098
1102.0,0.2966
1103.0,0.2942
1104.0,0.2945
1105.0,0.3211
1106.0,0.2498
1107.0,0.3058
1108.0,0.2617
1109.0,0.2617
1110.0,0.3034
1111.0,0.2092
1112.0,0.2595
1113.0,0.1687
1114.0,0.1882
1115.0,0.1561
1116.0,0.1268
1117.0,0.04889
1118.0,0.1372
1119.0,0.0699
1120.0,0.08807
1121.0,0.1158
1122.0,0.0503
1123.0,0.07952
1124.0,0.06714
1125.0,0.08715
1126.0,0.03191
1127.0,0.09817
1128.0,0.06042
1129.0,0.06386
1130.0,0.04272
1131.0,0.1822
1132.0,0.1437
1133.0,0.09319
1134.0,0.0251
1135.0,0.009338
1136.0,0.0785
1137.0,0.1796
1138.0,0.127
1139.0,0.1852
1140.0,0.1564
1141.0,0.1206
1142.0,0.1379
1143.0,0.1942
1144.0,0.06988
1145.0,0.08982
1146.0,0.0969
1147.0,0.03572
1148.0,0.1681
1149.0,0.1355
1150.0,0.075
1151.0,0.126
1152.0,0.1536
1153.0,0.1486
1154.0,0.08735
1155.0,0.1933
1156.0,0.1749
1157.0,0.195
1158.0,0.1928
1159.0,0.2069
1160.0,0.1781
1161.0,0.2169
1162.0,0.2181
1163.0,0.29
1164.0,0.2505
1165.0,0.2379
1166.0,0.2351
1167.0,0.2552
1168.0,0.2584
1169.0,0.2639
1170.0,0.2854
1171.0,0.2785
1172.0,0.2827
1173.0,0.2848
1174.0,0.2073
1175.0,0.2776
1176.0,0.3031
1177.0,0.2923
1178.0,0.2226
1179.0,0.3055
1180.0,0.2749
1181.0,0.2835
1182.0,0.199
1183.0,0.2787
1184.0,0.2623
1185.0,0.2541
1186.0,0.2979
1187.0,0.2848
1188.0,0.2027
1189.0,0.2655
1190.0,0.2911
1191.0,0.2782
1192.0,0.2949
1193.0,0.2833
1194.0,0.2915
1195.0,0.277
1196.0,0.2676
1197.0,0.291
1198.0,0.2672
1199.0,0.2303
1200.0,0.2798
1201.0,0.2709
1202.0,0.2687
1203.0,0.2665
1204.0,0.2347
1205.0,0.274
1206.0,0.3011
1207.0,0.2683
1208.0,0.2632
1209.0,0.2684
1210.0,0.2789
1211.0,0.2668
1212.0,0.2649
1213.0,0.2918
1214.0,0.2706
1215.0,0.2658
1216.0,0.2908
1217.0,0.2837
1218.0,0.2885
1219.0,0.2852
1220.0,0.2887
1221.0,0.2913
1222.0,0.284
1223.0,0.2816
1224.0,0.2804
1225.0,0.2894
1226.0,0.291
1227.0,0.27
1228.0,0.2921
1229.0,0.291
1230.0,0.2863
1231.0,0.2935
1232.0,0.2918
1233.0,0.283
1234.0,0.293
1235.0,0.2913
1236.0,0.2933
1237.0,0.2897
1238.0,0.2923
1239.0,0.2885
1240.0,0.2896
1241.0,0.2885
1242.0,0.2876
1243.0,0.2853
1244.0,0.2874
1245.0,0.2885
1246.0,0.2869
1247.0,0.2858
1248.0,0.2858
1249.0,0.2865
1250.0,0.2849
1251.0,0.2814
1252.0,0.2812
1253.0,0.2794
1254.0,0.277
1255.0,0.2811
1256.0,0.274
1257.0,0.2727
1258.0,0.2771
1259.0,0.2683
1260.0,0.2696
1261.0,0.256
1262.0,0.2492
1263.0,0.2497
1264.0,0.2324
1265.0,0.2481
1266.0,0.2398
1267.0,0.2433
1268.0,0.232
1269.0,0.1524
1270.0,0.2427
1271.0,0.255
1272.0,0.2556
1273.0,0.2531
1274.0,0.2537
1275.0,0.257
1276.0,0.2592
1277.0,0.2606
1278.0,0.2649
1279.0,0.2626
1280.0,0.2592
1281.0,0.2471
1282.0,0.2376
1283.0,0.256
1284.0,0.2622
1285.0,0.2638
1286.0,0.2671
1287.0,0.2635
1288.0,0.2633
1289.0,0.256
1290.0,0.2609
1291.0,0.2644
1292.0,0.2502
1293.0,0.2597
1294.0,0.258
1295.0,0.2572
1296.0,0.2467
1297.0,0.2343
1298.0,0.2503
1299.0,0.2598
1300.0,0.2232
1301.0,0.2294
1302.0,0.2495
1303.0,0.2199
1304.0,0.1905
1305.0,0.2446
1306.0,0.2448
1307.0,0.1936
1308.0,0.2197
1309.0,0.2432
1310.0,0.19
1311.0,0.2113
1312.0,0.2061
1313.0,0.2026
1314.0,0.1824
1315.0,0.1807
1316.0,0.2085
1317.0,0.1978
1318.0,0.2138
1319.0,0.1706
1320.0,0.1645
1321.0,0.1905
1322.0,0.1929
1323.0,0.148
1324.0,0.1673
1325.0,0.2057
1326.0,0.1783
1327.0,0.1705
1328.0,0.148
1329.0,0.1135
1330.0,0.1465
1331.0,0.09119
1332.0,0.09322
1333.0,0.1291
1334.0,0.1081
1335.0,0.1474
1336.0,0.118
1337.0,0.1051
1338.0,0.1137
1339.0,0.1128
1340.0,0.109
1341.0,0.108
1342.0,0.1134
1343.0,0.08009
1344.0,0.04781
1345.0,0.06868
1346.0,0.03629
1347.0,0.03727
1348.0,0.00283
1349.0,0.009712
1350.0,0.009765
1351.0,0.002733
1352.0,0.0008579
1353.0,5.196e-05
1354.0,0.0001607
1355.0,1.835e-06
1356.0,2.573e-05
1357.0,3.901e-05
1358.0,2.143e-06
1359.0,3.499e-07
1360.0,1.075e-06
1361.0,2.092e-09
1362.0,7.316e-12
1363.0,1.563e-06
1364.0,6.614e-07
1365.0,3.458e-12
1366.0,6.377e-06
1367.0,2.513e-06
1368.0,4.83e-14
1369.0,2.514e-07
1370.0,1.382e-07
1371.0,9.023e-09
1372.0,1.384e-06
1373.0,2.339e-05
1374.0,9.643e-05
1375.0,0.0001755
1376.0,0.0001437
1377.0,6.771e-05
1378.0,0.0006256
1379.0,2.863e-05
1380.0,4.429e-05
1381.0,1.252e-06
1382.0,1.287e-06
1383.0,2.147e-08
1384.0,2.967e-07
1385.0,1.08e-06
1386.0,1.236e-06
1387.0,0.0001071
1388.0,2.148e-06
1389.0,0.0003195
1390.0,0.0002751
1391.0,0.0001887
1392.0,1.286e-05
1393.0,6.382e-05
1394.0,3.986e-05
1395.0,3.398e-07
1396.0,2.802e-09
1397.0,2.67e-05
1398.0,0.0007109
1399.0,0.0004504
1400.0,1.397e-09
1401.0,4.783e-09
1402.0,0.001071
1403.0,0.001385
1404.0,0.0004278
1405.0,1.817e-07
1406.0,0.001168
1407.0,0.0001003
1408.0,0.0009482
1409.0,0.0003476
1410.0,0.0002642
1411.0,0.001212
1412.0,0.001569
1413.0,0.0143
1414.0,0.0002064
1415.0,0.0001033
1416.0,0.02206
1417.0,0.007125
1418.0,0.008167
1419.0,0.001289
1420.0,0.005014
1421.0,0.005436
1422.0,0.02868
1423.0,0.005674
1424.0,0.01053
1425.0,0.01566
1426.0,0.01736
1427.0,0.031
1428.0,0.00269
1429.0,0.0236
1430.0,0.03921
1431.0,0.04282
1432.0,0.002129
1433.0,0.02757
1434.0,0.01419
1435.0,0.01475
1436.0,0.02759
1437.0,0.02114
1438.0,0.009169
1439.0,0.03714
1440.0,0.02785
1441.0,0.02164
1442.0,0.02393
1443.0,0.02943
1444.0,0.0405
1445.0,0.03218
1446.0,0.01462
1447.0,0.02301
1448.0,0.07455
1449.0,0.06518
