interpolation:linear
wavelength,value
280.0,4.6460000000000006e-20
280.5,1.304e-18
281.0,6.638e-18
281.5,4.559e-19
282.0,1.997e-18
282.5,5.665e-18
283.0,1.889e-17
283.5,3.118e-17
284.0,4.915e-16
284.5,1.386e-15
285.0,2.658e-15
285.5,1.636e-14
286.0,6.986e-14
286.5,3.382e-13
287.0,1.008e-12
287.5,4.006e-12
288.0,1.177e-11
288.5,4.677e-11
289.0,1.574e-10
289.5,5.928e-10
290.0,1.945e-09
290.5,4.54e-09
291.0,1.136e-08
291.5,3.917e-08
292.0,1.06e-07
292.5,1.669e-07
293.0,4.144e-07
293.5,1.237e-06
294.0,2.258e-06
294.5,2.951e-06
295.0,5.766e-06
295.5,1.394e-05
296.0,2.651e-05
296.5,3.652e-05
297.0,4.879e-05
297.5,0.0001282
298.0,0.0001984
298.5,0.0001967
299.0,0.0004276
299.5,0.0006907
300.0,0.0007486
300.5,0.001067
301.0,0.001881
301.5,0.002928
302.0,0.002475
302.5,0.00467
303.0,0.008014
303.5,0.009798
304.0,0.009017
304.5,0.01274
305.0,0.01792
305.5,0.01958
306.0,0.01861
306.5,0.02249
307.0,0.03124
307.5,0.03903
308.0,0.04082
308.5,0.04677
309.0,0.04508
309.5,0.04946
310.0,0.04872
310.5,0.07813
311.0,0.09647
311.5,0.09245
312.0,0.08919
312.5,0.106
313.0,0.1135
313.5,0.1115
314.0,0.1354
314.5,0.1155
315.0,0.1508
315.5,0.1285
316.0,0.1088
316.5,0.152
317.0,0.1888
317.5,0.198
318.0,0.1516
318.5,0.1817
319.0,0.2118
319.5,0.1776
320.0,0.2155
320.5,0.2601
321.0,0.2242
321.5,0.2143
322.0,0.2364
322.5,0.2053
323.0,0.1998
323.5,0.2403
324.0,0.2795
324.5,0.2863
325.0,0.2504
325.5,0.3161
326.0,0.3842
326.5,0.3801
327.0,0.3804
327.5,0.3695
328.0,0.3343
328.5,0.3445
329.0,0.4061
329.5,0.4588
330.0,0.4645
330.5,0.3762
331.0,0.3848
331.5,0.3876
332.0,0.4133
332.5,0.4064
333.0,0.4066
333.5,0.3715
334.0,0.3811
334.5,0.435
335.0,0.4062
335.5,0.4743
336.0,0.3282
336.5,0.3854
337.0,0.3176
337.5,0.3956
338.0,0.3828
338.5,0.4417
339.0,0.4371
339.5,0.4204
340.0,0.4941
340.5,0.445
341.0,0.4341
341.5,0.3984
342.0,0.476
342.5,0.4452
343.0,0.4897
343.5,0.4612
344.0,0.3407
344.5,0.3442
345.0,0.4553
345.5,0.4647
346.0,0.3948
346.5,0.4469
347.0,0.4799
347.5,0.388
348.0,0.4421
348.5,0.4418
349.0,0.4098
349.5,0.4057
350.0,0.5017
350.5,0.5292
351.0,0.4728
351.5,0.4596
352.0,0.4935
352.5,0.385
353.0,0.4848
353.5,0.5183
354.0,0.538
354.5,0.5456
355.0,0.5438
355.5,0.4912
356.0,0.5139
356.5,0.4388
357.0,0.3625
357.5,0.4438
358.0,0.3517
358.5,0.3005
359.0,0.4204
359.5,0.5358
360.0,0.5679
360.5,0.4539
361.0,0.4137
361.5,0.4763
362.0,0.4117
362.5,0.5697
363.0,0.5116
363.5,0.4712
364.0,0.5762
364.5,0.4925
365.0,0.5016
365.5,0.6295
366.0,0.6669
366.5,0.6265
367.0,0.6101
367.5,0.6332
368.0,0.554
368.5,0.559
369.0,0.6037
369.5,0.6434
370.0,0.6859
370.5,0.5323
371.0,0.5687
371.5,0.7115
372.0,0.4723
372.5,0.5662
373.0,0.5759
373.5,0.3747
374.0,0.5445
374.5,0.4509
375.0,0.4383
375.5,0.6544
376.0,0.5425
376.5,0.5622
377.0,0.5952
377.5,0.6963
378.0,0.7548
378.5,0.7134
379.0,0.5888
379.5,0.5379
380.0,0.5592
380.5,0.6773
381.0,0.6787
381.5,0.5379
382.0,0.4777
382.5,0.4072
383.0,0.377
383.5,0.3631
384.0,0.4005
384.5,0.589
385.0,0.5841
385.5,0.544
386.0,0.4659
386.5,0.6119
387.0,0.5085
387.5,0.5712
388.0,0.5273
388.5,0.5213
389.0,0.5627
389.5,0.6815
390.0,0.6839
390.5,0.6294
391.0,0.7409
391.5,0.7557
392.0,0.6365
392.5,0.5698
393.0,0.3171
393.5,0.2305
394.0,0.469
394.5,0.5962
395.0,0.7275
395.5,0.7391
396.0,0.6408
396.5,0.3746
397.0,0.2811
397.5,0.5717
398.0,0.8006
398.5,0.8275
399.0,0.896
399.5,0.893
400.0,0.9274
401.0,0.9423
402.0,0.9941
403.0,0.9442
404.0,0.9296
405.0,0.9295
406.0,0.9143
407.0,0.8994
408.0,0.9346
409.0,1.0
410.0,0.8739
411.0,0.9465
412.0,1.016
413.0,0.9912
414.0,1.003
415.0,1.006
416.0,1.023
417.0,0.9979
418.0,0.9795
419.0,0.9922
420.0,0.9878
421.0,1.033
422.0,0.9821
423.0,0.9593
424.0,1.015
425.0,1.013
426.0,0.9861
427.0,0.9676
428.0,0.9426
429.0,0.8925
430.0,0.781
431.0,0.7742
432.0,0.9994
433.0,1.005
434.0,0.933
435.0,0.9744
436.0,1.098
437.0,1.083
438.0,0.9857
439.0,1.02
440.0,1.052
441.0,1.09
442.0,1.169
443.0,1.139
444.0,1.163
445.0,1.138
446.0,1.086
447.0,1.173
448.0,1.192
449.0,1.196
450.0,1.229
451.0,1.275
452.0,1.228
453.0,1.155
454.0,1.205
455.0,1.213
456.0,1.241
457.0,1.262
458.0,1.219
459.0,1.213
460.0,1.216
461.0,1.244
462.0,1.253
463.0,1.245
464.0,1.224
465.0,1.208
466.0,1.219
467.0,1.197
468.0,1.211
469.0,1.218
470.0,1.179
471.0,1.177
472.0,1.24
473.0,1.224
474.0,1.226
475.0,1.237
476.0,1.201
477.0,1.205
478.0,1.238
479.0,1.23
480.0,1.232
481.0,1.255
482.0,1.261
483.0,1.245
484.0,1.219
485.0,1.161
486.0,1.015
487.0,1.063
488.0,1.166
489.0,1.17
490.0,1.231
491.0,1.209
492.0,1.142
493.0,1.179
494.0,1.191
495.0,1.201
496.0,1.209
497.0,1.227
498.0,1.17
499.0,1.185
500.0,1.151
501.0,1.13
502.0,1.115
503.0,1.161
504.0,1.133
505.0,1.172
506.0,1.21
507.0,1.151
508.0,1.115
509.0,1.146
510.0,1.139
511.0,1.169
512.0,1.182
513.0,1.119
514.0,1.111
515.0,1.1
516.0,1.097
517.0,0.9747
518.0,1.025
519.0,1.075
520.0,1.114
521.0,1.125
522.0,1.126
523.0,1.106
524.0,1.146
525.0,1.159
526.0,1.108
527.0,1.044
528.0,1.105
529.0,1.165
530.0,1.148
531.0,1.165
532.0,1.125
533.0,1.092
534.0,1.124
535.0,1.149
536.0,1.159
537.0,1.113
538.0,1.133
539.0,1.123
540.0,1.077
541.0,1.085
542.0,1.119
543.0,1.107
544.0,1.126
545.0,1.123
546.0,1.128
547.0,1.127
548.0,1.114
549.0,1.117
550.0,1.13
551.0,1.116
552.0,1.124
553.0,1.104
554.0,1.13
555.0,1.133
556.0,1.118
557.0,1.084
558.0,1.076
559.0,1.056
560.0,1.069
561.0,1.083
562.0,1.076
563.0,1.106
564.0,1.076
565.0,1.067
566.0,1.051
567.0,1.072
568.0,1.063
569.0,1.04
570.0,1.039
571.0,1.032
572.0,1.058
573.0,1.07
574.0,1.067
575.0,1.047
576.0,1.038
577.0,1.049
578.0,1.032
579.0,1.036
580.0,1.054
581.0,1.059
582.0,1.078
583.0,1.08
584.0,1.089
585.0,1.062
586.0,1.04
587.0,1.063
588.0,1.04
589.0,0.9256
590.0,0.9676
591.0,1.021
592.0,1.01
593.0,1.023
594.0,1.017
595.0,0.993
596.0,1.029
597.0,1.018
598.0,1.015
599.0,1.015
600.0,1.016
601.0,1.007
602.0,0.9997
603.0,1.016
604.0,1.033
605.0,1.027
606.0,1.022
607.0,1.032
608.0,1.02
609.0,1.022
610.0,1.014
611.0,1.019
612.0,1.016
613.0,1.003
614.0,0.9891
615.0,1.01
616.0,0.9768
617.0,0.9747
618.0,1.012
619.0,1.002
620.0,1.008
621.0,1.009
622.0,0.9978
623.0,0.9828
624.0,0.9657
625.0,0.9635
626.0,0.9779
627.0,0.9896
628.0,0.9336
629.0,0.9694
630.0,0.9474
631.0,0.9656
632.0,0.9535
633.0,0.9812
634.0,0.9706
635.0,0.9852
636.0,0.9716
637.0,0.9871
638.0,0.9958
639.0,0.9843
640.0,0.9743
641.0,0.9734
642.0,0.9686
643.0,0.9816
644.0,0.9781
645.0,0.9798
646.0,0.9581
647.0,0.9493
648.0,0.9505
649.0,0.9322
650.0,0.9334
651.0,0.9732
652.0,0.9364
653.0,0.9602
654.0,0.9492
655.0,0.9157
656.0,0.8103
657.0,0.8319
658.0,0.9313
659.0,0.9375
660.0,0.9412
661.0,0.9478
662.0,0.9503
663.0,0.9313
664.0,0.9414
665.0,0.9415
666.0,0.9419
667.0,0.9407
668.0,0.9407
669.0,0.955
670.0,0.9508
671.0,0.9504
672.0,0.9421
673.0,0.9562
674.0,0.9525
675.0,0.9437
676.0,0.95
677.0,0.9404
678.0,0.943
679.0,0.9277
680.0,0.935
681.0,0.9288
682.0,0.9276
683.0,0.9258
684.0,0.9212
685.0,0.9289
686.0,0.9236
687.0,0.6542
688.0,0.7469
689.0,0.749
690.0,0.779
691.0,0.8125
692.0,0.8363
693.0,0.8301
694.0,0.8232
695.0,0.8523
696.0,0.8535
697.0,0.8994
698.0,0.8856
699.0,0.8685
700.0,0.8581
701.0,0.8507
702.0,0.855
703.0,0.8566
704.0,0.8815
705.0,0.8828
706.0,0.8811
707.0,0.8814
708.0,0.8834
709.0,0.8832
710.0,0.8838
711.0,0.8821
712.0,0.8788
713.0,0.8706
714.0,0.8737
715.0,0.8477
716.0,0.8486
717.0,0.7511
718.0,0.6924
719.0,0.6359
720.0,0.6671
721.0,0.7271
722.0,0.8217
723.0,0.7703
724.0,0.7
725.0,0.6909
726.0,0.7221
727.0,0.7289
728.0,0.6898
729.0,0.7102
730.0,0.7514
731.0,0.7206
732.0,0.7651
733.0,0.8044
734.0,0.822
735.0,0.8058
736.0,0.8047
737.0,0.808
738.0,0.8169
739.0,0.8009
740.0,0.8206
741.0,0.8118
742.0,0.8119
743.0,0.8323
744.0,0.8296
745.0,0.8294
746.0,0.8332
747.0,0.8349
748.0,0.8332
749.0,0.8236
750.0,0.8231
751.0,0.8147
752.0,0.8182
753.0,0.8223
754.0,0.8242
755.0,0.8195
756.0,0.8191
757.0,0.8203
758.0,0.8102
759.0,0.7958
760.0,0.1735
761.0,0.1002
762.0,0.4487
763.0,0.249
764.0,0.3522
765.0,0.4489
766.0,0.5313
767.0,0.651
768.0,0.736
769.0,0.748
770.0,0.7697
771.0,0.7742
772.0,0.7753
773.0,0.7806
774.0,0.7767
775.0,0.7707
776.0,0.7801
777.0,0.7698
778.0,0.7651
779.0,0.7658
780.0,0.7614
781.0,0.7622
782.0,0.7669
783.0,0.7535
784.0,0.7571
785.0,0.7516
786.0,0.76
787.0,0.7483
788.0,0.7398
789.0,0.7397
790.0,0.7223
791.0,0.7263
792.0,0.7207
793.0,0.7093
794.0,0.719
795.0,0.7318
796.0,0.7124
797.0,0.7134
798.0,0.7312
799.0,0.7271
800.0,0.7153
801.0,0.7137
802.0,0.7116
803.0,0.7066
804.0,0.7072
805.0,0.7041
806.0,0.7224
807.0,0.714
808.0,0.7145
809.0,0.7022
810.0,0.6973
811.0,0.6997
812.0,0.6818
813.0,0.669
814.0,0.596
815.0,0.592
816.0,0.5521
817.0,0.5613
818.0,0.5419
819.0,0.5994
820.0,0.5671
821.0,0.654
822.0,0.6368
823.0,0.4471
824.0,0.6213
825.0,0.6431
826.0,0.6213
827.0,0.6529
828.0,0.5615
829.0,0.617
830.0,0.6098
831.0,0.6116
832.0,0.5943
833.0,0.6282
834.0,0.6086
835.0,0.663
836.0,0.6381
837.0,0.6646
838.0,0.6455
839.0,0.6543
840.0,0.6682
841.0,0.6594
842.0,0.6598
843.0,0.6584
844.0,0.6498
845.0,0.6709
846.0,0.6678
847.0,0.6551
848.0,0.6515
849.0,0.633
850.0,0.6064
851.0,0.6425
852.0,0.6377
853.0,0.6135
854.0,0.53
855.0,0.5819
856.0,0.636
857.0,0.6499
858.0,0.6453
859.0,0.6456
860.0,0.6467
861.0,0.6432
862.0,0.6532
863.0,0.6686
864.0,0.6352
865.0,0.6296
866.0,0.5661
867.0,0.5907
868.0,0.6428
869.0,0.6295
870.0,0.6474
871.0,0.6386
872.0,0.6363
873.0,0.635
874.0,0.6275
875.0,0.6148
876.0,0.6212
877.0,0.6274
878.0,0.6343
879.0,0.6246
880.0,0.6112
881.0,0.6022
882.0,0.6153
883.0,0.617
884.0,0.6143
885.0,0.6189
886.0,0.5906
887.0,0.5963
888.0,0.6055
889.0,0.6117
890.0,0.6074
891.0,0.6059
892.0,0.5894
893.0,0.5722
894.0,0.5544
895.0,0.5269
896.0,0.4977
897.0,0.4315
898.0,0.4686
899.0,0.3613
900.0,0.4773
901.0,0.3786
902.0,0.4377
903.0,0.4442
904.0,0.5503
905.0,0.5326
906.0,0.4995
907.0,0.4119
908.0,0.4192
909.0,0.4512
910.0,0.4041
911.0,0.4276
912.0,0.4459
913.0,0.4104
914.0,0.406
915.0,0.4397
916.0,0.3736
917.0,0.4686
918.0,0.3833
919.0,0.4758
920.0,0.478
921.0,0.4966
922.0,0.4476
923.0,0.4795
924.0,0.459
925.0,0.4491
926.0,0.454
927.0,0.5048
928.0,0.3802
929.0,0.3497
930.0,0.2789
931.0,0.2636
932.0,0.194
933.0,0.1599
934.0,0.09234
935.0,0.1617
936.0,0.1039
937.0,0.1057
938.0,0.1288
939.0,0.2554
940.0,0.3044
941.0,0.2336
942.0,0.268
943.0,0.1793
944.0,0.1861
945.0,0.2402
946.0,0.1263
947.0,0.2423
948.0,0.1786
949.0,0.3203
950.0,0.09524
951.0,0.3147
952.0,0.1744
953.0,0.2217
954.0,0.268
955.0,0.2238
956.0,0.2153
957.0,0.1752
958.0,0.2997
959.0,0.2423
960.0,0.2715
961.0,0.3015
962.0,0.2857
963.0,0.3266
964.0,0.3001
965.0,0.3251
966.0,0.3258
967.0,0.3247
968.0,0.4257
969.0,0.4454
970.0,0.4104
971.0,0.4656
972.0,0.4461
973.0,0.3926
974.0,0.3733
975.0,0.3858
976.0,0.3686
977.0,0.415
978.0,0.3961
979.0,0.4135
980.0,0.3897
981.0,0.4627
982.0,0.4439
983.0,0.4271
984.0,0.475
985.0,0.4422
986.0,0.4824
987.0,0.4741
988.0,0.4732
989.0,0.4803
990.0,0.4703
991.0,0.4818
992.0,0.4845
993.0,0.4748
994.0,0.4842
995.0,0.4835
996.0,0.4815
997.0,0.4821
998.0,0.4799
999.0,0.4781
1000.0,0.475
1001.0,0.4806
1002.0,0.4684
1003.0,0.4722
1004.0,0.4609
1005.0,0.4437
1006.0,0.4612
1007.0,0.4709
1008.0,0.4685
1009.0,0.4662
1010.0,0.4643
1011.0,0.4685
1012.0,0.4646
1013.0,0.4673
1014.0,0.464
1015.0,0.4609
1016.0,0.4589
1017.0,0.4601
1018.0,0.4582
1019.0,0.4489
1020.0,0.4559
1021.0,0.4552
1022.0,0.4518
1023.0,0.4566
1024.0,0.4511
1025.0,0.4562
1026.0,0.4543
1027.0,0.4532
1028.0,0.4523
1029.0,0.447
1030.0,0.4499
1031.0,0.4482
1032.0,0.4468
1033.0,0.4401
1034.0,0.4401
1035.0,0.4415
1036.0,0.4438
1037.0,0.4366
1038.0,0.4385
1039.0,0.4383
1040.0,0.4366
1041.0,0.4383
1042.0,0.4353
1043.0,0.4339
1044.0,0.4355
1045.0,0.4296
1046.0,0.4249
1047.0,0.4287
1048.0,0.4311
1049.0,0.4296
1050.0,0.4276
1051.0,0.4271
1052.0,0.4254
1053.0,0.422
1054.0,0.423
1055.0,0.4233
1056.0,0.4219
1057.0,0.4206
1058.0,0.4103
1059.0,0.4108
1060.0,0.4102
1061.0,0.4098
1062.0,0.412
1063.0,0.408
1064.0,0.4128
1065.0,0.41
1066.0,0.4017
1067.0,0.407
1068.0,0.3982
1069.0,0.3858
1070.0,0.399
1071.0,0.4049
1072.0,0.4005
1073.0,0.3946
1074.0,0.4044
1075.0,0.3853
1076.0,0.4042
1077.0,0.3976
1078.0,0.3903
1079.0,0.3975
1080.0,0.3914
1081.0,0.3794
1082.0,0.3846
1083.0,0.3855
1084.0,0.3788
1085.0,0.3922
1086.0,0.3596
1087.0,0.3699
1088.0,0.3853
1089.0,0.3745
1090.0,0.367
1091.0,0.3843
1092.0,0.3831
1093.0,0.328
1094.0,0.3509
1095.0,0.3413
1096.0,0.3277
1097.0,0.3742
1098.0,0.323
1099.0,0.3364
1100.0,0.3141
1101.0,0.3176
1102.0,0.3042
1103.0,0.3019
1104.0,0.3022
1105.0,0.329
1106.0,0.2571
1107.0,0.3135
1108.0,0.269
1109.0,0.2688
1110.0,0.3112
1111.0,0.2154
1112.0,0.2665
1113.0,0.1742
1114.0,0.1942
1115.0,0.1611
1116.0,0.1314
1117.0,0.05131
1118.0,0.142
1119.0,0.07285
1120.0,0.0918
1121.0,0.1203
1122.0,0.05273
1123.0,0.08287
1124.0,0.06998
1125.0,0.09072
1126.0,0.03365
1127.0,0.1021
1128.0,0.06334
1129.0,0.06687
1130.0,0.04494
1131.0,0.1885
1132.0,0.1488
1133.0,0.09713
1134.0,0.02653
1135.0,0.009855
1136.0,0.08203
1137.0,0.186
1138.0,0.1316
1139.0,0.1909
1140.0,0.1616
1141.0,0.125
1142.0,0.1427
1143.0,0.2005
1144.0,0.07272
1145.0,0.0936
1146.0,0.101
1147.0,0.03768
1148.0,0.1736
1149.0,0.1402
1150.0,0.07802
1151.0,0.1306
1152.0,0.1588
1153.0,0.1533
1154.0,0.09112
1155.0,0.1992
1156.0,0.1805
1157.0,0.2009
1158.0,0.1987
1159.0,0.2129
1160.0,0.1836
1161.0,0.2229
1162.0,0.2243
1163.0,0.2972
1164.0,0.257
1165.0,0.2445
1166.0,0.2414
1167.0,0.2618
1168.0,0.2651
1169.0,0.2707
1170.0,0.2924
1171.0,0.2854
1172.0,0.2895
1173.0,0.2918
1174.0,0.2133
1175.0,0.2843
1176.0,0.31
1177.0,0.2992
1178.0,0.2285
1179.0,0.3125
1180.0,0.2816
1181.0,0.2904
1182.0,0.2045
1183.0,0.2853
1184.0,0.2687
1185.0,0.2605
1186.0,0.3048
1187.0,0.2916
1188.0,0.2084
1189.0,0.2719
1190.0,0.2978
1191.0,0.285
1192.0,0.3017
1193.0,0.29
1194.0,0.2983
1195.0,0.2837
1196.0,0.2742
1197.0,0.2976
1198.0,0.2735
1199.0,0.2362
1200.0,0.2864
1201.0,0.2775
1202.0,0.2751
1203.0,0.2729
1204.0,0.2406
1205.0,0.2805
1206.0,0.3078
1207.0,0.2748
1208.0,0.2694
1209.0,0.2746
1210.0,0.2853
1211.0,0.2731
1212.0,0.2714
1213.0,0.2985
1214.0,0.2772
1215.0,0.2723
1216.0,0.2974
1217.0,0.2903
1218.0,0.2951
1219.0,0.2918
1220.0,0.2953
1221.0,0.2978
1222.0,0.2905
1223.0,0.2881
1224.0,0.2869
1225.0,0.296
1226.0,0.2975
1227.0,0.2763
1228.0,0.2986
1229.0,0.2975
1230.0,0.2928
1231.0,0.2999
1232.0,0.2982
1233.0,0.2895
1234.0,0.2994
1235.0,0.2977
1236.0,0.2997
1237.0,0.2961
1238.0,0.2987
1239.0,0.2948
1240.0,0.2959
1241.0,0.2949
1242.0,0.2939
1243.0,0.2915
1244.0,0.2937
1245.0,0.2948
1246.0,0.2931
1247.0,0.2921
1248.0,0.2921
1249.0,0.2928
1250.0,0.2911
1251.0,0.2876
1252.0,0.2874
1253.0,0.2856
1254.0,0.2831
1255.0,0.2872
1256.0,0.2801
1257.0,0.2788
1258.0,0.2832
1259.0,0.2745
1260.0,0.2757
1261.0,0.2621
1262.0,0.2552
1263.0,0.2558
1264.0,0.2384
1265.0,0.2541
1266.0,0.2459
1267.0,0.2492
1268.0,0.2379
1269.0,0.1577
1270.0,0.2487
1271.0,0.261
1272.0,0.2616
1273.0,0.2591
1274.0,0.2596
1275.0,0.263
1276.0,0.2652
1277.0,0.2666
1278.0,0.2709
1279.0,0.2685
1280.0,0.2651
1281.0,0.2526
1282.0,0.2428
1283.0,0.2616
1284.0,0.268
1285.0,0.2697
1286.0,0.273
1287.0,0.2694
1288.0,0.2691
1289.0,0.2618
1290.0,0.2667
1291.0,0.2702
1292.0,0.256
1293.0,0.2655
1294.0,0.2637
1295.0,0.263
1296.0,0.2525
1297.0,0.24
1298.0,0.2561
1299.0,0.2656
1300.0,0.2287
1301.0,0.2349
1302.0,0.2552
1303.0,0.2252
1304.0,0.1957
1305.0,0.2502
1306.0,0.2505
1307.0,0.1986
1308.0,0.225
1309.0,0.2488
1310.0,0.195
1311.0,0.2165
1312.0,0.2112
1313.0,0.2077
1314.0,0.1872
1315.0,0.1856
1316.0,0.2137
1317.0,0.2028
1318.0,0.219
1319.0,0.1753
1320.0,0.169
1321.0,0.1954
1322.0,0.198
1323.0,0.1524
1324.0,0.172
1325.0,0.2108
1326.0,0.1831
1327.0,0.1752
1328.0,0.1522
1329.0,0.1171
1330.0,0.151
1331.0,0.09455
1332.0,0.09648
1333.0,0.1334
1334.0,0.1115
1335.0,0.1518
1336.0,0.1218
1337.0,0.1086
1338.0,0.1175
1339.0,0.1165
1340.0,0.1124
1341.0,0.1118
1342.0,0.1173
1343.0,0.08353
1344.0,0.04985
1345.0,0.07153
1346.0,0.03826
1347.0,0.03937
1348.0,0.003083
1349.0,0.01048
1350.0,0.01047
1351.0,0.003011
1352.0,0.0009715
1353.0,6.084e-05
1354.0,0.0001844
1355.0,2.247e-06
1356.0,3.022e-05
1357.0,4.575e-05
1358.0,2.618e-06
1359.0,4.481e-07
1360.0,1.336e-06
1361.0,2.883e-09
1362.0,1.057e-11
1363.0,1.963e-06
1364.0,8.355e-07
1365.0,5.27e-12
1366.0,7.904e-06
1367.0,3.099e-06
1368.0,8.199e-14
1369.0,3.187e-07
1370.0,1.788e-07
1371.0,1.199e-08
1372.0,1.708e-06
1373.0,2.789e-05
1374.0,0.0001124
1375.0,0.0002044
1376.0,0.0001647
1377.0,7.803e-05
1378.0,0.000712
1379.0,3.304e-05
1380.0,5.177e-05
1381.0,1.487e-06
1382.0,1.597e-06
1383.0,2.722e-08
1384.0,3.79e-07
1385.0,1.311e-06
1386.0,1.554e-06
1387.0,0.0001263
1388.0,2.548e-06
1389.0,0.000368
1390.0,0.0003166
1391.0,0.0002186
1392.0,1.504e-05
1393.0,7.369e-05
1394.0,4.762e-05
1395.0,4.185e-07
1396.0,3.809e-09
1397.0,3.112e-05
1398.0,0.0008104
1399.0,0.0005135
1400.0,1.95e-09
1401.0,6.438e-09
1402.0,0.001186
1403.0,0.001542
1404.0,0.0004774
1405.0,2.277e-07
1406.0,0.001315
1407.0,0.0001126
1408.0,0.001066
1409.0,0.0003972
1410.0,0.0002993
1411.0,0.001348
1412.0,0.001731
1413.0,0.01536
1414.0,0.0002334
1415.0,0.0001179
1416.0,0.02338
1417.0,0.007679
1418.0,0.008808
1419.0,0.001396
1420.0,0.005413
1421.0,0.005878
1422.0,0.03035
1423.0,0.006042
1424.0,0.01118
1425.0,0.01667
1426.0,0.01837
1427.0,0.03252
1428.0,0.002937
1429.0,0.02487
1430.0,0.04103
1431.0,0.04473
1432.0,0.002328
1433.0,0.02892
1434.0,0.01494
1435.0,0.01572
1436.0,0.02911
1437.0,0.0223
1438.0,0.009762
1439.0,0.03904
1440.0,0.0293
1441.0,0.02291
1442.0,0.02531
1443.0,0.0309
1444.0,0.04241
1445.0,0.03389
1446.0,0.01546
1447.0,0.02432
1448.0,0.07742
1449.0,0.06789
1450.0,0.01801
1451.0,0.007395
1452.0,0.0415
