interpolation:linear
wavelength,value
280.0,5.002e-23
280.5,1.683e-21
281.0,9.117e-21
281.5,2.965e-19
282.0,4.95e-19
282.5,1.15e-18
283.0,3.546e-18
283.5,5.755e-18
284.0,9.418e-17
284.5,2.764e-16
285.0,7.048e-16
285.5,2.96e-15
286.0,1.159e-14
286.5,5.016e-14
287.0,1.418e-13
287.5,5.409e-13
288.0,1.732e-12
288.5,4.937e-12
289.0,1.274e-11
289.5,3.775e-11
290.0,1.042e-10
290.5,2.122e-10
291.0,4.561e-10
291.5,1.313e-09
292.0,2.692e-09
292.5,3.744e-09
293.0,7.947e-09
293.5,1.91e-08
294.0,2.977e-08
294.5,3.659e-08
295.0,6.151e-08
295.5,1.042e-07
296.0,1.952e-07
296.5,2.647e-07
297.0,3.485e-07
297.5,8.946e-07
298.0,1.353e-06
298.5,1.316e-06
299.0,2.802e-06
299.5,4.358e-06
300.0,4.607e-06
300.5,6.396e-06
301.0,1.077e-05
301.5,1.6e-05
302.0,1.318e-05
302.5,2.522e-05
303.0,4.386e-05
303.5,5.462e-05
304.0,5.21e-05
304.5,8.131e-05
305.0,0.0001323
305.5,0.0001591
306.0,0.000157
306.5,0.0002021
307.0,0.0003244
307.5,0.0004672
308.0,0.0004998
308.5,0.000615
309.0,0.0006784
309.5,0.0009482
310.0,0.001045
310.5,0.001772
311.0,0.002399
311.5,0.002392
312.0,0.002822
312.5,0.003832
313.0,0.004402
313.5,0.004049
314.0,0.005778
314.5,0.006112
315.0,0.008286
315.5,0.006357
316.0,0.006409
316.5,0.01042
317.0,0.0129
317.5,0.01295
318.0,0.011
318.5,0.01608
319.0,0.02071
319.5,0.01477
320.0,0.01749
320.5,0.02587
321.0,0.0268
321.5,0.02608
322.0,0.02361
322.5,0.02071
323.0,0.02292
323.5,0.03297
324.0,0.03923
324.5,0.03787
325.0,0.02935
325.5,0.04113
326.0,0.05484
326.5,0.05846
327.0,0.05692
327.5,0.05336
328.0,0.04361
328.5,0.05079
329.0,0.06585
329.5,0.07656
330.0,0.07573
330.5,0.05698
331.0,0.05684
331.5,0.06048
332.0,0.06977
332.5,0.07109
333.0,0.06967
333.5,0.06006
334.0,0.06104
334.5,0.07441
335.0,0.07218
335.5,0.0856
336.0,0.05923
336.5,0.06725
337.0,0.05391
337.5,0.06649
338.0,0.06792
338.5,0.08006
339.0,0.0795
339.5,0.07634
340.0,0.08795
340.5,0.07965
341.0,0.07901
341.5,0.07297
342.0,0.08736
342.5,0.08189
343.0,0.08974
343.5,0.08432
344.0,0.06125
344.5,0.06271
345.0,0.08355
345.5,0.08558
346.0,0.0729
346.5,0.08268
347.0,0.08851
347.5,0.07151
348.0,0.08186
348.5,0.08203
349.0,0.07621
349.5,0.07546
350.0,0.09341
350.5,0.09856
351.0,0.0879
351.5,0.08505
352.0,0.09167
352.5,0.07174
353.0,0.09055
353.5,0.09697
354.0,0.1008
354.5,0.1022
355.0,0.1018
355.5,0.09212
356.0,0.09649
356.5,0.08242
357.0,0.0681
357.5,0.08342
358.0,0.06616
358.5,0.05657
359.0,0.07912
359.5,0.1007
360.0,0.1069
360.5,0.0855
361.0,0.07804
361.5,0.08998
362.0,0.07792
362.5,0.108
363.0,0.09706
363.5,0.08949
364.0,0.1095
364.5,0.09367
365.0,0.09545
365.5,0.1199
366.0,0.1272
366.5,0.1196
367.0,0.1166
367.5,0.121
368.0,0.106
368.5,0.107
369.0,0.1157
369.5,0.1234
370.0,0.1316
370.5,0.1023
371.0,0.1094
371.5,0.1369
372.0,0.09092
372.5,0.1091
373.0,0.1111
373.5,0.07233
374.0,0.1052
374.5,0.08719
375.0,0.08482
375.5,0.1267
376.0,0.1051
376.5,0.109
377.0,0.1155
377.5,0.1352
378.0,0.1467
378.5,0.1387
379.0,0.1145
379.5,0.1046
380.0,0.1089
380.5,0.132
381.0,0.1324
381.5,0.1051
382.0,0.09345
382.5,0.07977
383.0,0.07394
383.5,0.07129
384.0,0.0787
384.5,0.1159
385.0,0.115
385.5,0.1072
386.0,0.09193
386.5,0.1209
387.0,0.1005
387.5,0.113
388.0,0.1044
388.5,0.1033
389.0,0.1116
389.5,0.1353
390.0,0.136
390.5,0.1252
391.0,0.1476
391.5,0.1506
392.0,0.127
392.5,0.1138
393.0,0.0634
393.5,0.04613
394.0,0.09396
394.5,0.1196
395.0,0.146
395.5,0.1484
396.0,0.1288
396.5,0.07541
397.0,0.05666
397.5,0.1153
398.0,0.1616
398.5,0.1672
399.0,0.1813
399.5,0.1809
400.0,0.1879
401.0,0.1881
402.0,0.1989
403.0,0.1894
404.0,0.1868
405.0,0.1871
406.0,0.1845
407.0,0.1819
408.0,0.1891
409.0,0.2028
410.0,0.1776
411.0,0.1927
412.0,0.2076
413.0,0.2027
414.0,0.2056
415.0,0.2066
416.0,0.2107
417.0,0.2058
418.0,0.2023
419.0,0.2054
420.0,0.2048
421.0,0.2147
422.0,0.2043
423.0,0.1999
424.0,0.2116
425.0,0.2116
426.0,0.2068
427.0,0.2032
428.0,0.1983
429.0,0.1884
430.0,0.1652
431.0,0.1638
432.0,0.212
433.0,0.2135
434.0,0.1985
435.0,0.2074
436.0,0.2344
437.0,0.2319
438.0,0.2115
439.0,0.2184
440.0,0.2257
441.0,0.2344
442.0,0.2517
443.0,0.245
444.0,0.251
445.0,0.2457
446.0,0.2353
447.0,0.2552
448.0,0.2589
449.0,0.2609
450.0,0.2686
451.0,0.2789
452.0,0.2692
453.0,0.2536
454.0,0.2654
455.0,0.2672
456.0,0.2738
457.0,0.2785
458.0,0.2686
459.0,0.2674
460.0,0.268
461.0,0.2743
462.0,0.2771
463.0,0.2753
464.0,0.2718
465.0,0.2693
466.0,0.2726
467.0,0.2675
468.0,0.2707
469.0,0.2722
470.0,0.2634
471.0,0.2634
472.0,0.2776
473.0,0.2741
474.0,0.274
475.0,0.2757
476.0,0.2666
477.0,0.2667
478.0,0.2742
479.0,0.273
480.0,0.274
481.0,0.2798
482.0,0.2821
483.0,0.2796
484.0,0.2746
485.0,0.2623
486.0,0.23
487.0,0.2417
488.0,0.2652
489.0,0.2658
490.0,0.2802
491.0,0.2757
492.0,0.2606
493.0,0.2693
494.0,0.2722
495.0,0.2748
496.0,0.2765
497.0,0.2807
498.0,0.2675
499.0,0.2705
500.0,0.2621
501.0,0.2567
502.0,0.2519
503.0,0.261
504.0,0.2511
505.0,0.2627
506.0,0.2712
507.0,0.2584
508.0,0.2514
509.0,0.2594
510.0,0.2588
511.0,0.2665
512.0,0.2698
513.0,0.2554
514.0,0.2539
515.0,0.2514
516.0,0.2506
517.0,0.2229
518.0,0.2342
519.0,0.2456
520.0,0.2544
521.0,0.2566
522.0,0.2565
523.0,0.2517
524.0,0.2599
525.0,0.262
526.0,0.2499
527.0,0.2348
528.0,0.2477
529.0,0.2605
530.0,0.2564
531.0,0.2598
532.0,0.2507
533.0,0.2434
534.0,0.2509
535.0,0.2568
536.0,0.2595
537.0,0.2497
538.0,0.2543
539.0,0.2521
540.0,0.2415
541.0,0.242
542.0,0.249
543.0,0.2471
544.0,0.2505
545.0,0.2499
546.0,0.2502
547.0,0.2509
548.0,0.2483
549.0,0.2493
550.0,0.2523
551.0,0.2493
552.0,0.2511
553.0,0.2464
554.0,0.2522
555.0,0.2525
556.0,0.249
557.0,0.2409
558.0,0.2385
559.0,0.2335
560.0,0.236
561.0,0.2384
562.0,0.236
563.0,0.2416
564.0,0.2344
565.0,0.2318
566.0,0.2279
567.0,0.2314
568.0,0.2275
569.0,0.2187
570.0,0.219
571.0,0.2185
572.0,0.2214
573.0,0.2233
574.0,0.222
575.0,0.217
576.0,0.2151
577.0,0.2178
578.0,0.2156
579.0,0.2181
580.0,0.2248
581.0,0.228
582.0,0.2341
583.0,0.2361
584.0,0.2392
585.0,0.2339
586.0,0.2292
587.0,0.2332
588.0,0.2233
589.0,0.1897
590.0,0.1989
591.0,0.2155
592.0,0.2098
593.0,0.2167
594.0,0.2137
595.0,0.205
596.0,0.2201
597.0,0.2157
598.0,0.2173
599.0,0.2184
600.0,0.2204
601.0,0.2199
602.0,0.2187
603.0,0.2231
604.0,0.2272
605.0,0.2264
606.0,0.2263
607.0,0.2293
608.0,0.2276
609.0,0.2287
610.0,0.2278
611.0,0.2296
612.0,0.2294
613.0,0.227
614.0,0.2246
615.0,0.2302
616.0,0.2232
617.0,0.2232
618.0,0.2322
619.0,0.2301
620.0,0.2316
621.0,0.2313
622.0,0.2283
623.0,0.2245
624.0,0.2211
625.0,0.2204
626.0,0.2234
627.0,0.2241
628.0,0.1889
629.0,0.2115
630.0,0.2059
631.0,0.2175
632.0,0.2163
633.0,0.2258
634.0,0.2259
635.0,0.2307
636.0,0.229
637.0,0.2338
638.0,0.2377
639.0,0.236
640.0,0.2348
641.0,0.2354
642.0,0.2353
643.0,0.2386
644.0,0.2388
645.0,0.2387
646.0,0.2306
647.0,0.2219
648.0,0.223
649.0,0.2174
650.0,0.2262
651.0,0.2372
652.0,0.2204
653.0,0.2347
654.0,0.2326
655.0,0.2203
656.0,0.1978
657.0,0.2037
658.0,0.2308
659.0,0.2335
660.0,0.2352
661.0,0.2374
662.0,0.2368
663.0,0.2325
664.0,0.2372
665.0,0.2389
666.0,0.2397
667.0,0.2403
668.0,0.2413
669.0,0.2456
670.0,0.2449
671.0,0.2453
672.0,0.2435
673.0,0.2476
674.0,0.2471
675.0,0.2452
676.0,0.2473
677.0,0.2452
678.0,0.2462
679.0,0.2425
680.0,0.2446
681.0,0.2431
682.0,0.2429
683.0,0.2425
684.0,0.2413
685.0,0.2438
686.0,0.2419
687.0,0.08294
688.0,0.1258
689.0,0.1274
690.0,0.1455
691.0,0.1684
692.0,0.1879
693.0,0.1861
694.0,0.188
695.0,0.2067
696.0,0.2079
697.0,0.2327
698.0,0.2288
699.0,0.2147
700.0,0.2117
701.0,0.2056
702.0,0.2105
703.0,0.2124
704.0,0.2244
705.0,0.2244
706.0,0.2261
707.0,0.2272
708.0,0.2274
709.0,0.2316
710.0,0.2294
711.0,0.2305
712.0,0.2317
713.0,0.2275
714.0,0.2291
715.0,0.218
716.0,0.2173
717.0,0.1584
718.0,0.144
719.0,0.1296
720.0,0.1324
721.0,0.1622
722.0,0.2036
723.0,0.181
724.0,0.1519
725.0,0.1466
726.0,0.154
727.0,0.1636
728.0,0.145
729.0,0.1604
730.0,0.1663
731.0,0.1579
732.0,0.1801
733.0,0.2001
734.0,0.2085
735.0,0.2022
736.0,0.201
737.0,0.2022
738.0,0.2142
739.0,0.2104
740.0,0.2184
741.0,0.2178
742.0,0.2197
743.0,0.2258
744.0,0.2263
745.0,0.2273
746.0,0.2283
747.0,0.2291
748.0,0.2287
749.0,0.2262
750.0,0.2262
751.0,0.2239
752.0,0.225
753.0,0.2263
754.0,0.2268
755.0,0.2255
756.0,0.2255
757.0,0.2258
758.0,0.2228
759.0,0.2119
760.0,0.003752
761.0,0.001546
762.0,0.03805
763.0,0.007865
764.0,0.01881
765.0,0.03785
766.0,0.06802
767.0,0.1189
768.0,0.1737
769.0,0.1869
770.0,0.2047
771.0,0.2117
772.0,0.2138
773.0,0.2158
774.0,0.2151
775.0,0.2138
776.0,0.2165
777.0,0.2137
778.0,0.2124
779.0,0.2125
780.0,0.2115
781.0,0.2118
782.0,0.2132
783.0,0.2097
784.0,0.2109
785.0,0.2089
786.0,0.2108
787.0,0.2024
788.0,0.1978
789.0,0.1979
790.0,0.187
791.0,0.1944
792.0,0.194
793.0,0.1903
794.0,0.1992
795.0,0.201
796.0,0.1864
797.0,0.1857
798.0,0.1997
799.0,0.197
800.0,0.1916
801.0,0.1888
802.0,0.188
803.0,0.1853
804.0,0.1867
805.0,0.1886
806.0,0.1984
807.0,0.1952
808.0,0.1955
809.0,0.1884
810.0,0.1851
811.0,0.1823
812.0,0.1699
813.0,0.1651
814.0,0.1322
815.0,0.1328
816.0,0.1212
817.0,0.1237
818.0,0.1161
819.0,0.1406
820.0,0.1291
821.0,0.1688
822.0,0.161
823.0,0.08437
824.0,0.1491
825.0,0.1664
826.0,0.1537
827.0,0.1685
828.0,0.1252
829.0,0.1541
830.0,0.1512
831.0,0.1514
832.0,0.1435
833.0,0.1604
834.0,0.1501
835.0,0.1785
836.0,0.1606
837.0,0.1787
838.0,0.1684
839.0,0.1757
840.0,0.1809
841.0,0.1762
842.0,0.1799
843.0,0.1834
844.0,0.179
845.0,0.1874
846.0,0.1873
847.0,0.1848
848.0,0.1821
849.0,0.1769
850.0,0.1696
851.0,0.1779
852.0,0.1776
853.0,0.1722
854.0,0.1476
855.0,0.1637
856.0,0.1782
857.0,0.1833
858.0,0.1814
859.0,0.1823
860.0,0.1831
861.0,0.182
862.0,0.1851
863.0,0.1895
864.0,0.1801
865.0,0.1787
866.0,0.1607
867.0,0.1677
868.0,0.1826
869.0,0.1789
870.0,0.184
871.0,0.1815
872.0,0.1809
873.0,0.1806
874.0,0.1785
875.0,0.1748
876.0,0.1765
877.0,0.1784
878.0,0.18
879.0,0.1774
880.0,0.1736
881.0,0.1702
882.0,0.1735
883.0,0.1749
884.0,0.1738
885.0,0.1751
886.0,0.1642
887.0,0.1681
888.0,0.1695
889.0,0.1735
890.0,0.1692
891.0,0.1704
892.0,0.1619
893.0,0.1538
894.0,0.1409
895.0,0.1244
896.0,0.1152
897.0,0.09
898.0,0.1019
899.0,0.06813
900.0,0.1102
901.0,0.07147
902.0,0.09549
903.0,0.09192
904.0,0.1391
905.0,0.1317
906.0,0.1204
907.0,0.08226
908.0,0.08769
909.0,0.09977
910.0,0.07828
911.0,0.09258
912.0,0.09578
913.0,0.07892
914.0,0.08058
915.0,0.08576
916.0,0.07168
917.0,0.1007
918.0,0.07239
919.0,0.1063
920.0,0.1169
921.0,0.1201
922.0,0.09986
923.0,0.1172
924.0,0.09922
925.0,0.09775
926.0,0.09698
927.0,0.1157
928.0,0.06381
929.0,0.05332
930.0,0.0337
931.0,0.03118
932.0,0.01621
933.0,0.01107
934.0,0.002828
935.0,0.01275
936.0,0.005443
937.0,0.005541
938.0,0.007565
939.0,0.02997
940.0,0.04163
941.0,0.02494
942.0,0.03157
943.0,0.01636
944.0,0.02189
945.0,0.02718
946.0,0.008414
947.0,0.0257
948.0,0.01845
949.0,0.04111
950.0,0.004736
951.0,0.04048
952.0,0.01501
953.0,0.02373
954.0,0.03445
955.0,0.02477
956.0,0.03197
957.0,0.01494
958.0,0.05012
959.0,0.03167
960.0,0.03572
961.0,0.04663
962.0,0.04413
963.0,0.05714
964.0,0.05071
965.0,0.0559
966.0,0.05616
967.0,0.05466
968.0,0.1016
969.0,0.1006
970.0,0.09067
971.0,0.1167
972.0,0.1082
973.0,0.08147
974.0,0.07706
975.0,0.08306
976.0,0.07157
977.0,0.09786
978.0,0.08605
979.0,0.0932
980.0,0.08636
981.0,0.1163
982.0,0.1065
983.0,0.0998
984.0,0.1265
985.0,0.1055
986.0,0.1332
987.0,0.1268
988.0,0.1271
989.0,0.1358
990.0,0.1259
991.0,0.1357
992.0,0.137
993.0,0.1298
994.0,0.1375
995.0,0.1382
996.0,0.1367
997.0,0.1373
998.0,0.1364
999.0,0.1361
1000.0,0.1339
1001.0,0.137
1002.0,0.1279
1003.0,0.1343
1004.0,0.1295
1005.0,0.1267
1006.0,0.1308
1007.0,0.134
1008.0,0.1324
1009.0,0.1306
1010.0,0.1296
1011.0,0.1334
1012.0,0.1313
1013.0,0.1334
1014.0,0.1325
1015.0,0.1315
1016.0,0.1308
1017.0,0.1308
1018.0,0.131
1019.0,0.1262
1020.0,0.13
1021.0,0.1302
1022.0,0.1284
1023.0,0.1297
1024.0,0.126
1025.0,0.1303
1026.0,0.1292
1027.0,0.129
1028.0,0.1286
1029.0,0.1268
1030.0,0.1285
1031.0,0.1277
1032.0,0.1275
1033.0,0.1256
1034.0,0.1256
1035.0,0.126
1036.0,0.1264
1037.0,0.1245
1038.0,0.1249
1039.0,0.1247
1040.0,0.1242
1041.0,0.1245
1042.0,0.1236
1043.0,0.1231
1044.0,0.1234
1045.0,0.1216
1046.0,0.1201
1047.0,0.121
1048.0,0.1215
1049.0,0.1209
1050.0,0.1201
1051.0,0.1198
1052.0,0.1191
1053.0,0.1178
1054.0,0.1178
1055.0,0.1176
1056.0,0.1168
1057.0,0.1161
1058.0,0.113
1059.0,0.1128
1060.0,0.1124
1061.0,0.1121
1062.0,0.1123
1063.0,0.111
1064.0,0.1124
1065.0,0.1108
1066.0,0.1092
1067.0,0.1104
1068.0,0.1075
1069.0,0.1046
1070.0,0.1077
1071.0,0.1111
1072.0,0.1085
1073.0,0.1072
1074.0,0.112
1075.0,0.1022
1076.0,0.1117
1077.0,0.1074
1078.0,0.104
1079.0,0.1109
1080.0,0.1055
1081.0,0.09989
1082.0,0.1053
1083.0,0.1069
1084.0,0.09874
1085.0,0.1061
1086.0,0.09113
1087.0,0.09778
1088.0,0.1061
1089.0,0.0979
1090.0,0.094
1091.0,0.1045
1092.0,0.1049
1093.0,0.07793
1094.0,0.09458
1095.0,0.08108
1096.0,0.07492
1097.0,0.1026
1098.0,0.07184
1099.0,0.0763
1100.0,0.06723
1101.0,0.06983
1102.0,0.06364
1103.0,0.06091
1104.0,0.06145
1105.0,0.07342
1106.0,0.04145
1107.0,0.0673
1108.0,0.04814
1109.0,0.04895
1110.0,0.06392
1111.0,0.03146
1112.0,0.04903
1113.0,0.02111
1114.0,0.02362
1115.0,0.01851
1116.0,0.01071
1117.0,0.001613
1118.0,0.01222
1119.0,0.0035
1120.0,0.003979
1121.0,0.006239
1122.0,0.001219
1123.0,0.003641
1124.0,0.003044
1125.0,0.00458
1126.0,0.0004603
1127.0,0.005278
1128.0,0.001625
1129.0,0.001806
1130.0,0.001147
1131.0,0.01636
1132.0,0.01134
1133.0,0.004147
1134.0,0.0003477
1135.0,0.0001691
1136.0,0.00266
1137.0,0.01487
1138.0,0.009524
1139.0,0.02356
1140.0,0.0159
1141.0,0.00921
1142.0,0.01199
1143.0,0.02158
1144.0,0.004037
1145.0,0.003893
1146.0,0.004183
1147.0,0.0004939
1148.0,0.01761
1149.0,0.01168
1150.0,0.005275
1151.0,0.009514
1152.0,0.01449
1153.0,0.01663
1154.0,0.004328
1155.0,0.02457
1156.0,0.02001
1157.0,0.02799
1158.0,0.02753
1159.0,0.03138
1160.0,0.02609
1161.0,0.03877
1162.0,0.03805
1163.0,0.06568
1164.0,0.05135
1165.0,0.04369
1166.0,0.0477
1167.0,0.05427
1168.0,0.05421
1169.0,0.05649
1170.0,0.06603
1171.0,0.06438
1172.0,0.06904
1173.0,0.06597
1174.0,0.03768
1175.0,0.06788
1176.0,0.08162
1177.0,0.07346
1178.0,0.04752
1179.0,0.08206
1180.0,0.06579
1181.0,0.06807
1182.0,0.03783
1183.0,0.06843
1184.0,0.06082
1185.0,0.05577
1186.0,0.0762
1187.0,0.06915
1188.0,0.03651
1189.0,0.06402
1190.0,0.07551
1191.0,0.06467
1192.0,0.07728
1193.0,0.07157
1194.0,0.07544
1195.0,0.06659
1196.0,0.06173
1197.0,0.07704
1198.0,0.06906
1199.0,0.04937
1200.0,0.07087
1201.0,0.06457
1202.0,0.06785
1203.0,0.06463
1204.0,0.05316
1205.0,0.07173
1206.0,0.08375
1207.0,0.06607
1208.0,0.06793
1209.0,0.06946
1210.0,0.07472
1211.0,0.06811
1212.0,0.06129
1213.0,0.07794
1214.0,0.06469
1215.0,0.06322
1216.0,0.07863
1217.0,0.07477
1218.0,0.07778
1219.0,0.0755
1220.0,0.07807
1221.0,0.08042
1222.0,0.07742
1223.0,0.07578
1224.0,0.07295
1225.0,0.07923
1226.0,0.08155
1227.0,0.06965
1228.0,0.08289
1229.0,0.08161
1230.0,0.07918
1231.0,0.08474
1232.0,0.08411
1233.0,0.07677
1234.0,0.08582
1235.0,0.08446
1236.0,0.08572
1237.0,0.08288
1238.0,0.08545
1239.0,0.08431
1240.0,0.0849
1241.0,0.08318
1242.0,0.08417
1243.0,0.08357
1244.0,0.08373
1245.0,0.08434
1246.0,0.08391
1247.0,0.08319
1248.0,0.08245
1249.0,0.08332
1250.0,0.08239
1251.0,0.08047
1252.0,0.08158
1253.0,0.07896
1254.0,0.07676
1255.0,0.08099
1256.0,0.07515
1257.0,0.07402
1258.0,0.07822
1259.0,0.07004
1260.0,0.07105
1261.0,0.06085
1262.0,0.05596
1263.0,0.05592
1264.0,0.04521
1265.0,0.05566
1266.0,0.04966
1267.0,0.05323
1268.0,0.04628
1269.0,0.0116
1270.0,0.05196
1271.0,0.06158
1272.0,0.06227
1273.0,0.06091
1274.0,0.06209
1275.0,0.06406
1276.0,0.06595
1277.0,0.06816
1278.0,0.07186
1279.0,0.07132
1280.0,0.07041
1281.0,0.06842
1282.0,0.06794
1283.0,0.07275
1284.0,0.07416
1285.0,0.07501
1286.0,0.0771
1287.0,0.07389
1288.0,0.07461
1289.0,0.06825
1290.0,0.07407
1291.0,0.07586
1292.0,0.06447
1293.0,0.07287
1294.0,0.07211
1295.0,0.06914
1296.0,0.06221
1297.0,0.05626
1298.0,0.06646
1299.0,0.07348
1300.0,0.05275
1301.0,0.05563
1302.0,0.06666
1303.0,0.05269
1304.0,0.03721
1305.0,0.06476
1306.0,0.06344
1307.0,0.0407
1308.0,0.05411
1309.0,0.06117
1310.0,0.03894
1311.0,0.04992
1312.0,0.04794
1313.0,0.0443
1314.0,0.03655
1315.0,0.0347
1316.0,0.04759
1317.0,0.04363
1318.0,0.05103
1319.0,0.03071
1320.0,0.03108
1321.0,0.03975
1322.0,0.03827
1323.0,0.02191
1324.0,0.0306
1325.0,0.04525
1326.0,0.03458
1327.0,0.03157
1328.0,0.02454
1329.0,0.01312
1330.0,0.02024
1331.0,0.00748
1332.0,0.008648
1333.0,0.01293
1334.0,0.01464
1335.0,0.02082
1336.0,0.0134
1337.0,0.01164
1338.0,0.01216
1339.0,0.01251
1340.0,0.0136
1341.0,0.009789
1342.0,0.01086
1343.0,0.0037
1344.0,0.002516
1345.0,0.003112
1346.0,0.0005386
1347.0,0.0004299
1348.0,6.923e-06
1349.0,2.908e-05
1350.0,3.318e-05
1351.0,4.157e-06
1352.0,9.607e-07
1353.0,4.87e-08
1354.0,1.683e-07
1355.0,1.346e-09
1356.0,2.359e-08
1357.0,3.583e-08
1358.0,1.581e-09
1359.0,1.991e-10
1360.0,7.197e-10
1361.0,8.05e-13
1362.0,2.202e-15
1363.0,9.677e-10
1364.0,3.995e-10
1365.0,7.688e-16
1366.0,4.194e-09
1367.0,1.712e-09
1368.0,5.937e-18
1369.0,1.472e-10
1370.0,7.25e-11
1371.0,4.11e-12
1372.0,9.284e-10
1373.0,1.871e-08
1374.0,8.684e-08
1375.0,1.574e-07
1376.0,1.423e-07
1377.0,6.489e-08
1378.0,6.327e-07
1379.0,2.718e-08
1380.0,3.876e-08
1381.0,1.01e-09
1382.0,8.137e-10
1383.0,1.216e-11
1384.0,1.595e-10
1385.0,7.628e-10
1386.0,7.174e-10
1387.0,8.677e-08
1388.0,1.709e-09
1389.0,2.936e-07
1390.0,2.517e-07
1391.0,1.675e-07
1392.0,1.087e-08
1393.0,5.775e-08
1394.0,2.96e-08
1395.0,2.169e-10
1396.0,1.048e-12
1397.0,2.268e-08
1398.0,6.702e-07
1399.0,4.243e-07
1400.0,4.482e-13
1401.0,1.859e-12
1402.0,1.396e-06
1403.0,1.582e-06
1404.0,4.639e-07
1405.0,1.027e-10
1406.0,1.163e-06
1407.0,1.159e-07
1408.0,9.503e-07
1409.0,3.131e-07
1410.0,2.567e-07
1411.0,1.387e-06
