interpolation:linear
wavelength,value
280.0,7.294000000000001e-20
280.5,2.002e-18
281.0,2.39e-19
281.5,4.892e-19
282.0,2.263e-18
282.5,6.516e-18
283.0,2.191e-17
283.5,3.627e-17
284.0,5.728e-16
284.5,1.615e-15
285.0,3.543e-15
285.5,2.263e-14
286.0,9.796e-14
286.5,4.858e-13
287.0,1.471e-12
287.5,5.956e-12
288.0,1.777e-11
288.5,7.101e-11
289.0,2.405e-10
289.5,9.119e-10
290.0,3.01e-09
290.5,7.063e-09
291.0,1.778e-08
291.5,6.184e-08
292.0,1.612e-07
292.5,2.519e-07
293.0,6.194e-07
293.5,1.821e-06
294.0,3.291e-06
294.5,4.253e-06
295.0,8.192e-06
295.5,1.925e-05
296.0,3.617e-05
296.5,4.924e-05
297.0,6.514e-05
297.5,0.0001686
298.0,0.0002578
298.5,0.0002531
299.0,0.000545
299.5,0.0008658
300.0,0.0009296
300.5,0.001313
301.0,0.002276
301.5,0.00349
302.0,0.002927
302.5,0.005489
303.0,0.00935
303.5,0.01138
304.0,0.01044
304.5,0.01465
305.0,0.02041
305.5,0.02216
306.0,0.02102
306.5,0.0253
307.0,0.03488
307.5,0.04327
308.0,0.04519
308.5,0.0516
309.0,0.04957
309.5,0.05411
310.0,0.05317
310.5,0.08518
311.0,0.105
311.5,0.1005
312.0,0.09654
312.5,0.1144
313.0,0.1223
313.5,0.1203
314.0,0.1456
314.5,0.1237
315.0,0.1613
315.5,0.1377
316.0,0.1162
316.5,0.1619
317.0,0.2011
317.5,0.211
318.0,0.1613
318.5,0.1925
319.0,0.224
319.5,0.1884
320.0,0.2287
320.5,0.275
321.0,0.2362
321.5,0.2256
322.0,0.2498
322.5,0.2169
323.0,0.2106
323.5,0.2526
324.0,0.2936
324.5,0.3012
325.0,0.2637
325.5,0.3322
326.0,0.4035
326.5,0.3986
327.0,0.3992
327.5,0.3879
328.0,0.3516
328.5,0.3616
329.0,0.4255
329.5,0.4804
330.0,0.4866
330.5,0.3946
331.0,0.4037
331.5,0.4062
332.0,0.4326
332.5,0.4251
333.0,0.4254
333.5,0.3891
334.0,0.3992
334.5,0.4551
335.0,0.4247
335.5,0.4959
336.0,0.3431
336.5,0.403
337.0,0.3323
337.5,0.4139
338.0,0.4002
338.5,0.4617
339.0,0.4568
339.5,0.4394
340.0,0.5164
340.5,0.465
341.0,0.4536
341.5,0.4163
342.0,0.4974
342.5,0.4652
343.0,0.5116
343.5,0.4818
344.0,0.3559
344.5,0.3596
345.0,0.4756
345.5,0.4853
346.0,0.4123
346.5,0.4668
347.0,0.5012
347.5,0.4052
348.0,0.4617
348.5,0.4614
349.0,0.4279
349.5,0.4236
350.0,0.5238
350.5,0.5525
351.0,0.4936
351.5,0.4798
352.0,0.5151
352.5,0.4019
353.0,0.506
353.5,0.541
354.0,0.5615
354.5,0.5695
355.0,0.5675
355.5,0.5126
356.0,0.5362
356.5,0.4578
357.0,0.3783
357.5,0.4631
358.0,0.367
358.5,0.3136
359.0,0.4386
359.5,0.559
360.0,0.5925
360.5,0.4735
361.0,0.4316
361.5,0.4968
362.0,0.4295
362.5,0.5942
363.0,0.5336
363.5,0.4914
364.0,0.6009
364.5,0.5136
365.0,0.523
365.5,0.6564
366.0,0.6953
366.5,0.6532
367.0,0.6361
367.5,0.66
368.0,0.5776
368.5,0.5827
369.0,0.6293
369.5,0.6707
370.0,0.7149
370.5,0.5548
371.0,0.5927
371.5,0.7415
372.0,0.4921
372.5,0.5901
373.0,0.6001
373.5,0.3904
374.0,0.5673
374.5,0.4698
375.0,0.4566
375.5,0.6818
376.0,0.5651
376.5,0.5857
377.0,0.62
377.5,0.7253
378.0,0.7863
378.5,0.7432
379.0,0.6133
379.5,0.5603
380.0,0.5825
380.5,0.7055
381.0,0.7069
381.5,0.5603
382.0,0.4975
382.5,0.424
383.0,0.3925
383.5,0.378
384.0,0.417
384.5,0.6133
385.0,0.6082
385.5,0.5663
386.0,0.485
386.5,0.6371
387.0,0.5294
387.5,0.5946
388.0,0.5489
388.5,0.5426
389.0,0.5857
389.5,0.7093
390.0,0.7119
390.5,0.6551
391.0,0.7711
391.5,0.7865
392.0,0.6624
392.5,0.593
393.0,0.3299
393.5,0.2398
394.0,0.488
394.5,0.6204
395.0,0.757
395.5,0.769
396.0,0.6667
396.5,0.3897
397.0,0.2924
397.5,0.5947
398.0,0.8329
398.5,0.8609
399.0,0.932
399.5,0.9289
400.0,0.9647
401.0,0.9805
402.0,1.034
403.0,0.9823
404.0,0.9671
405.0,0.9669
406.0,0.951
407.0,0.9354
408.0,0.972
409.0,1.04
410.0,0.9088
411.0,0.9842
412.0,1.057
413.0,1.031
414.0,1.043
415.0,1.046
416.0,1.064
417.0,1.037
418.0,1.018
419.0,1.031
420.0,1.027
421.0,1.074
422.0,1.021
423.0,0.9969
424.0,1.054
425.0,1.052
426.0,1.025
427.0,1.005
428.0,0.9794
429.0,0.9273
430.0,0.8114
431.0,0.8043
432.0,1.038
433.0,1.044
434.0,0.9692
435.0,1.012
436.0,1.14
437.0,1.124
438.0,1.024
439.0,1.059
440.0,1.093
441.0,1.132
442.0,1.214
443.0,1.183
444.0,1.208
445.0,1.182
446.0,1.127
447.0,1.218
448.0,1.238
449.0,1.242
450.0,1.276
451.0,1.323
452.0,1.275
453.0,1.199
454.0,1.251
455.0,1.259
456.0,1.289
457.0,1.31
458.0,1.266
459.0,1.259
460.0,1.262
461.0,1.291
462.0,1.301
463.0,1.292
464.0,1.27
465.0,1.253
466.0,1.265
467.0,1.242
468.0,1.257
469.0,1.263
470.0,1.223
471.0,1.222
472.0,1.287
473.0,1.27
474.0,1.273
475.0,1.284
476.0,1.246
477.0,1.25
478.0,1.285
479.0,1.276
480.0,1.279
481.0,1.302
482.0,1.308
483.0,1.292
484.0,1.265
485.0,1.205
486.0,1.053
487.0,1.103
488.0,1.21
489.0,1.214
490.0,1.277
491.0,1.255
492.0,1.185
493.0,1.223
494.0,1.235
495.0,1.246
496.0,1.254
497.0,1.273
498.0,1.213
499.0,1.229
500.0,1.194
501.0,1.172
502.0,1.156
503.0,1.204
504.0,1.176
505.0,1.216
506.0,1.256
507.0,1.195
508.0,1.157
509.0,1.189
510.0,1.182
511.0,1.213
512.0,1.226
513.0,1.16
514.0,1.152
515.0,1.141
516.0,1.138
517.0,1.011
518.0,1.063
519.0,1.115
520.0,1.155
521.0,1.167
522.0,1.168
523.0,1.147
524.0,1.188
525.0,1.203
526.0,1.149
527.0,1.083
528.0,1.146
529.0,1.208
530.0,1.191
531.0,1.209
532.0,1.168
533.0,1.133
534.0,1.167
535.0,1.192
536.0,1.203
537.0,1.155
538.0,1.175
539.0,1.165
540.0,1.117
541.0,1.125
542.0,1.161
543.0,1.148
544.0,1.169
545.0,1.165
546.0,1.171
547.0,1.17
548.0,1.155
549.0,1.159
550.0,1.172
551.0,1.158
552.0,1.166
553.0,1.145
554.0,1.173
555.0,1.175
556.0,1.16
557.0,1.124
558.0,1.116
559.0,1.096
560.0,1.11
561.0,1.124
562.0,1.117
563.0,1.147
564.0,1.117
565.0,1.107
566.0,1.091
567.0,1.112
568.0,1.104
569.0,1.08
570.0,1.079
571.0,1.072
572.0,1.099
573.0,1.111
574.0,1.108
575.0,1.088
576.0,1.078
577.0,1.089
578.0,1.072
579.0,1.076
580.0,1.094
581.0,1.099
582.0,1.119
583.0,1.121
584.0,1.13
585.0,1.102
586.0,1.079
587.0,1.103
588.0,1.079
589.0,0.9617
590.0,1.005
591.0,1.061
592.0,1.049
593.0,1.062
594.0,1.056
595.0,1.032
596.0,1.068
597.0,1.057
598.0,1.053
599.0,1.054
600.0,1.054
601.0,1.045
602.0,1.037
603.0,1.054
604.0,1.072
605.0,1.066
606.0,1.061
607.0,1.071
608.0,1.059
609.0,1.06
610.0,1.052
611.0,1.057
612.0,1.054
613.0,1.04
614.0,1.026
615.0,1.048
616.0,1.013
617.0,1.011
618.0,1.049
619.0,1.039
620.0,1.045
621.0,1.047
622.0,1.035
623.0,1.019
624.0,1.002
625.0,0.9993
626.0,1.014
627.0,1.026
628.0,0.9701
629.0,1.006
630.0,0.9834
631.0,1.002
632.0,0.989
633.0,1.017
634.0,1.006
635.0,1.021
636.0,1.007
637.0,1.023
638.0,1.032
639.0,1.02
640.0,1.01
641.0,1.009
642.0,1.004
643.0,1.017
644.0,1.013
645.0,1.015
646.0,0.993
647.0,0.9842
648.0,0.9855
649.0,0.9666
650.0,0.9673
651.0,1.008
652.0,0.9709
653.0,0.9949
654.0,0.9835
655.0,0.949
656.0,0.8396
657.0,0.862
658.0,0.9648
659.0,0.9711
660.0,0.9749
661.0,0.9817
662.0,0.9845
663.0,0.9647
664.0,0.975
665.0,0.9749
666.0,0.9753
667.0,0.974
668.0,0.974
669.0,0.9888
670.0,0.9843
671.0,0.9839
672.0,0.9753
673.0,0.9898
674.0,0.986
675.0,0.9768
676.0,0.9834
677.0,0.9735
678.0,0.9761
679.0,0.9602
680.0,0.9678
681.0,0.9614
682.0,0.9601
683.0,0.9582
684.0,0.9535
685.0,0.9615
686.0,0.9559
687.0,0.6848
688.0,0.7783
689.0,0.7803
690.0,0.8104
691.0,0.8439
692.0,0.8676
693.0,0.8612
694.0,0.8542
695.0,0.8835
696.0,0.8847
697.0,0.9312
698.0,0.9169
699.0,0.8999
700.0,0.8892
701.0,0.8817
702.0,0.8859
703.0,0.8875
704.0,0.9129
705.0,0.9143
706.0,0.9123
707.0,0.9126
708.0,0.9146
709.0,0.9141
710.0,0.915
711.0,0.9131
712.0,0.9096
713.0,0.9011
714.0,0.9044
715.0,0.8777
716.0,0.8787
717.0,0.7805
718.0,0.7201
719.0,0.6616
720.0,0.6944
721.0,0.755
722.0,0.8513
723.0,0.7991
724.0,0.7273
725.0,0.7182
726.0,0.7504
727.0,0.7569
728.0,0.7172
729.0,0.7374
730.0,0.7801
731.0,0.7485
732.0,0.7937
733.0,0.8334
734.0,0.8514
735.0,0.8347
736.0,0.8335
737.0,0.837
738.0,0.8455
739.0,0.829
740.0,0.8492
741.0,0.8399
742.0,0.8399
743.0,0.8611
744.0,0.8581
745.0,0.8579
746.0,0.8618
747.0,0.8636
748.0,0.8618
749.0,0.8519
750.0,0.8514
751.0,0.8427
752.0,0.8463
753.0,0.8505
754.0,0.8524
755.0,0.8476
756.0,0.8472
757.0,0.8484
758.0,0.838
759.0,0.8235
760.0,0.1885
761.0,0.1107
762.0,0.4725
763.0,0.2674
764.0,0.374
765.0,0.4728
766.0,0.5558
767.0,0.6774
768.0,0.7629
769.0,0.7748
770.0,0.7965
771.0,0.8009
772.0,0.8019
773.0,0.8074
774.0,0.8033
775.0,0.7971
776.0,0.8067
777.0,0.7961
778.0,0.7913
779.0,0.7919
780.0,0.7874
781.0,0.7882
782.0,0.7931
783.0,0.7792
784.0,0.7829
785.0,0.7773
786.0,0.786
787.0,0.7742
788.0,0.7655
789.0,0.7655
790.0,0.748
791.0,0.7517
792.0,0.7458
793.0,0.734
794.0,0.7436
795.0,0.7569
796.0,0.7375
797.0,0.7386
798.0,0.7564
799.0,0.7523
800.0,0.7402
801.0,0.7387
802.0,0.7365
803.0,0.7314
804.0,0.732
805.0,0.7286
806.0,0.7472
807.0,0.7386
808.0,0.7391
809.0,0.7266
810.0,0.7217
811.0,0.7244
812.0,0.7064
813.0,0.6934
814.0,0.6191
815.0,0.615
816.0,0.5737
817.0,0.5831
818.0,0.5634
819.0,0.6218
820.0,0.5887
821.0,0.6773
822.0,0.6598
823.0,0.4661
824.0,0.6443
825.0,0.6661
826.0,0.6441
827.0,0.6762
828.0,0.5831
829.0,0.6395
830.0,0.6322
831.0,0.634
832.0,0.6164
833.0,0.6507
834.0,0.6309
835.0,0.6862
836.0,0.6611
837.0,0.6878
838.0,0.6683
839.0,0.677
840.0,0.6913
841.0,0.6823
842.0,0.6825
843.0,0.6809
844.0,0.6721
845.0,0.6938
846.0,0.6906
847.0,0.6773
848.0,0.6737
849.0,0.6546
850.0,0.627
851.0,0.6645
852.0,0.6595
853.0,0.6344
854.0,0.5481
855.0,0.6017
856.0,0.6577
857.0,0.672
858.0,0.6672
859.0,0.6676
860.0,0.6686
861.0,0.665
862.0,0.6754
863.0,0.6913
864.0,0.6567
865.0,0.6509
866.0,0.5853
867.0,0.6108
868.0,0.6646
869.0,0.6508
870.0,0.6693
871.0,0.6602
872.0,0.6579
873.0,0.6565
874.0,0.6487
875.0,0.6356
876.0,0.6423
877.0,0.6487
878.0,0.6558
879.0,0.6457
880.0,0.6319
881.0,0.6227
882.0,0.6362
883.0,0.638
884.0,0.6351
885.0,0.6399
886.0,0.6109
887.0,0.6166
888.0,0.6262
889.0,0.6325
890.0,0.6281
891.0,0.6266
892.0,0.6097
893.0,0.5922
894.0,0.5744
895.0,0.5466
896.0,0.5166
897.0,0.4489
898.0,0.4869
899.0,0.3767
900.0,0.4954
901.0,0.3946
902.0,0.4547
903.0,0.4619
904.0,0.57
905.0,0.5521
906.0,0.5181
907.0,0.4286
908.0,0.436
909.0,0.4687
910.0,0.421
911.0,0.4448
912.0,0.4635
913.0,0.4276
914.0,0.4228
915.0,0.4577
916.0,0.3894
917.0,0.487
918.0,0.3995
919.0,0.4941
920.0,0.4958
921.0,0.5149
922.0,0.465
923.0,0.4971
924.0,0.4769
925.0,0.4666
926.0,0.4718
927.0,0.5236
928.0,0.3969
929.0,0.3658
930.0,0.2929
931.0,0.2766
932.0,0.2047
933.0,0.1693
934.0,0.09918
935.0,0.1708
936.0,0.1106
937.0,0.1126
938.0,0.1369
939.0,0.268
940.0,0.3186
941.0,0.2456
942.0,0.2811
943.0,0.1889
944.0,0.1953
945.0,0.2523
946.0,0.1339
947.0,0.2549
948.0,0.1881
949.0,0.3358
950.0,0.1018
951.0,0.3297
952.0,0.1843
953.0,0.2333
954.0,0.2809
955.0,0.2354
956.0,0.226
957.0,0.1853
958.0,0.3128
959.0,0.2541
960.0,0.2847
961.0,0.3152
962.0,0.2988
963.0,0.3408
964.0,0.3134
965.0,0.3391
966.0,0.34
967.0,0.3389
968.0,0.4416
969.0,0.4623
970.0,0.4263
971.0,0.4824
972.0,0.4625
973.0,0.4083
974.0,0.3884
975.0,0.4009
976.0,0.3836
977.0,0.4307
978.0,0.4116
979.0,0.4293
980.0,0.4048
981.0,0.4793
982.0,0.4603
983.0,0.4432
984.0,0.4917
985.0,0.4586
986.0,0.4989
987.0,0.4907
988.0,0.4897
989.0,0.4966
990.0,0.4867
991.0,0.4982
992.0,0.5009
993.0,0.4913
994.0,0.5006
995.0,0.4998
996.0,0.4978
997.0,0.4984
998.0,0.4962
999.0,0.4943
1000.0,0.4912
1001.0,0.4969
1002.0,0.4846
1003.0,0.4882
1004.0,0.4766
1005.0,0.4587
1006.0,0.4769
1007.0,0.4868
1008.0,0.4844
1009.0,0.4821
1010.0,0.4802
1011.0,0.4843
1012.0,0.4804
1013.0,0.4831
1014.0,0.4797
1015.0,0.4766
1016.0,0.4744
1017.0,0.4757
1018.0,0.4737
1019.0,0.4641
1020.0,0.4713
1021.0,0.4706
1022.0,0.4671
1023.0,0.4721
1024.0,0.4665
1025.0,0.4716
1026.0,0.4697
1027.0,0.4686
1028.0,0.4677
1029.0,0.4622
1030.0,0.4652
1031.0,0.4634
1032.0,0.462
1033.0,0.455
1034.0,0.455
1035.0,0.4564
1036.0,0.4589
1037.0,0.4514
1038.0,0.4534
1039.0,0.4532
1040.0,0.4514
1041.0,0.4532
1042.0,0.45
1043.0,0.4486
1044.0,0.4502
1045.0,0.4442
1046.0,0.4393
1047.0,0.4433
1048.0,0.4458
1049.0,0.4442
1050.0,0.4422
1051.0,0.4416
1052.0,0.4399
1053.0,0.4364
1054.0,0.4375
1055.0,0.4378
1056.0,0.4363
1057.0,0.435
1058.0,0.4244
1059.0,0.425
1060.0,0.4244
1061.0,0.4239
1062.0,0.4262
1063.0,0.4221
1064.0,0.427
1065.0,0.4241
1066.0,0.4156
1067.0,0.421
1068.0,0.412
1069.0,0.3991
1070.0,0.4128
1071.0,0.4188
1072.0,0.4143
1073.0,0.4083
1074.0,0.4183
1075.0,0.3988
1076.0,0.418
1077.0,0.4114
1078.0,0.4039
1079.0,0.4111
1080.0,0.4051
1081.0,0.3928
1082.0,0.3978
1083.0,0.3987
1084.0,0.3922
1085.0,0.4058
1086.0,0.3726
1087.0,0.3829
1088.0,0.3986
1089.0,0.3877
1090.0,0.3802
1091.0,0.3977
1092.0,0.3963
1093.0,0.3403
1094.0,0.3632
1095.0,0.3539
1096.0,0.3402
1097.0,0.3871
1098.0,0.3353
1099.0,0.3491
1100.0,0.3264
1101.0,0.33
1102.0,0.3163
1103.0,0.3141
1104.0,0.3144
1105.0,0.3415
1106.0,0.2686
1107.0,0.3258
1108.0,0.2806
1109.0,0.2802
1110.0,0.3235
1111.0,0.2254
1112.0,0.2777
1113.0,0.183
1114.0,0.2038
1115.0,0.1691
1116.0,0.1388
1117.0,0.05525
1118.0,0.1496
1119.0,0.0776
1120.0,0.0978
1121.0,0.1277
1122.0,0.05665
1123.0,0.08826
1124.0,0.07454
1125.0,0.09644
1126.0,0.03648
1127.0,0.1085
1128.0,0.06805
1129.0,0.07173
1130.0,0.04855
1131.0,0.1985
1132.0,0.1571
1133.0,0.1035
1134.0,0.02887
1135.0,0.0107
1136.0,0.08772
1137.0,0.1961
1138.0,0.139
1139.0,0.1999
1140.0,0.1699
1141.0,0.1321
1142.0,0.1504
1143.0,0.2105
1144.0,0.07729
1145.0,0.09968
1146.0,0.1076
1147.0,0.04088
1148.0,0.1823
1149.0,0.1478
1150.0,0.08289
1151.0,0.138
1152.0,0.1672
1153.0,0.1609
1154.0,0.09721
1155.0,0.2087
1156.0,0.1894
1157.0,0.2103
1158.0,0.2079
1159.0,0.2224
1160.0,0.1923
1161.0,0.2325
1162.0,0.234
1163.0,0.3085
1164.0,0.2674
1165.0,0.2549
1166.0,0.2513
1167.0,0.2723
1168.0,0.2758
1169.0,0.2814
1170.0,0.3035
1171.0,0.2963
1172.0,0.3003
1173.0,0.3029
1174.0,0.2226
1175.0,0.2949
1176.0,0.321
1177.0,0.3102
1178.0,0.2379
1179.0,0.3235
1180.0,0.2922
1181.0,0.3012
1182.0,0.2132
1183.0,0.2958
1184.0,0.279
1185.0,0.2708
1186.0,0.3158
1187.0,0.3024
1188.0,0.2173
1189.0,0.2821
1190.0,0.3086
1191.0,0.2958
1192.0,0.3126
1193.0,0.3005
1194.0,0.3091
1195.0,0.2943
1196.0,0.2847
1197.0,0.3082
1198.0,0.2835
1199.0,0.2456
1200.0,0.2969
1201.0,0.2879
1202.0,0.2853
1203.0,0.2831
1204.0,0.2501
1205.0,0.2906
1206.0,0.3185
1207.0,0.2851
1208.0,0.2792
1209.0,0.2846
1210.0,0.2954
1211.0,0.2831
1212.0,0.2817
1213.0,0.309
1214.0,0.2875
1215.0,0.2825
1216.0,0.3079
1217.0,0.3007
1218.0,0.3055
1219.0,0.3022
1220.0,0.3057
1221.0,0.3082
1222.0,0.3007
1223.0,0.2983
1224.0,0.2971
1225.0,0.3063
1226.0,0.3078
1227.0,0.2863
1228.0,0.3088
1229.0,0.3078
1230.0,0.303
1231.0,0.3101
1232.0,0.3083
1233.0,0.2996
1234.0,0.3095
1235.0,0.3078
1236.0,0.3098
1237.0,0.3062
1238.0,0.3088
1239.0,0.3048
1240.0,0.3059
1241.0,0.3049
1242.0,0.3038
1243.0,0.3013
1244.0,0.3036
1245.0,0.3048
1246.0,0.303
1247.0,0.302
1248.0,0.302
1249.0,0.3027
1250.0,0.301
1251.0,0.2975
1252.0,0.2972
1253.0,0.2954
1254.0,0.2929
1255.0,0.297
1256.0,0.2899
1257.0,0.2885
1258.0,0.293
1259.0,0.2842
1260.0,0.2855
1261.0,0.2718
1262.0,0.2649
1263.0,0.2654
1264.0,0.2479
1265.0,0.2637
1266.0,0.2554
1267.0,0.2587
1268.0,0.2472
1269.0,0.1662
1270.0,0.2582
1271.0,0.2706
1272.0,0.2712
1273.0,0.2686
1274.0,0.2691
1275.0,0.2725
1276.0,0.2747
1277.0,0.276
1278.0,0.2804
1279.0,0.2779
1280.0,0.2743
1281.0,0.2613
1282.0,0.2511
1283.0,0.2706
1284.0,0.2772
1285.0,0.2789
1286.0,0.2823
1287.0,0.2787
1288.0,0.2784
1289.0,0.271
1290.0,0.2758
1291.0,0.2794
1292.0,0.2652
1293.0,0.2747
1294.0,0.2729
1295.0,0.2722
1296.0,0.2617
1297.0,0.2489
1298.0,0.2651
1299.0,0.2747
1300.0,0.2374
1301.0,0.2437
1302.0,0.2642
1303.0,0.2337
1304.0,0.2038
1305.0,0.2591
1306.0,0.2594
1307.0,0.2067
1308.0,0.2334
1309.0,0.2578
1310.0,0.2029
1311.0,0.2247
1312.0,0.2194
1313.0,0.2159
1314.0,0.1948
1315.0,0.1933
1316.0,0.2219
1317.0,0.2107
1318.0,0.2272
1319.0,0.1829
1320.0,0.1761
1321.0,0.2033
1322.0,0.2061
1323.0,0.1594
1324.0,0.1794
1325.0,0.219
1326.0,0.1908
1327.0,0.1826
1328.0,0.1589
1329.0,0.123
1330.0,0.1582
1331.0,0.09994
1332.0,0.1017
1333.0,0.1404
1334.0,0.117
1335.0,0.1588
1336.0,0.1278
1337.0,0.1143
1338.0,0.1236
1339.0,0.1224
1340.0,0.118
1341.0,0.1178
1342.0,0.1235
1343.0,0.08907
1344.0,0.05313
1345.0,0.0761
1346.0,0.04146
1347.0,0.04278
1348.0,0.003511
1349.0,0.01177
1350.0,0.01163
1351.0,0.003488
1352.0,0.001172
1353.0,7.725e-05
1354.0,0.000227
1355.0,3.055e-06
1356.0,3.854e-05
1357.0,5.824e-05
1358.0,3.545e-06
1359.0,6.512e-07
1360.0,1.855e-06
1361.0,4.679e-09
1362.0,1.846e-11
1363.0,2.767e-06
1364.0,1.19e-06
1365.0,9.962e-12
1366.0,1.092e-05
1367.0,4.255e-06
1368.0,1.821e-13
1369.0,4.564e-07
1370.0,2.637e-07
1371.0,1.842e-08
1372.0,2.348e-06
1373.0,3.639e-05
1374.0,0.0001418
1375.0,0.0002571
1376.0,0.0002025
1377.0,9.676e-05
1378.0,0.0008655
1379.0,4.109e-05
1380.0,6.556e-05
1381.0,1.933e-06
1382.0,2.213e-06
1383.0,3.903e-08
1384.0,5.486e-07
1385.0,1.76e-06
1386.0,2.196e-06
1387.0,0.0001618
1388.0,3.303e-06
1389.0,0.0004554
1390.0,0.0003915
1391.0,0.0002728
1392.0,1.909e-05
1393.0,9.164e-05
1394.0,6.23e-05
1395.0,5.737e-07
1396.0,6.06e-09
1397.0,3.926e-05
1398.0,0.0009873
1399.0,0.0006259
1400.0,3.224e-09
1401.0,1.009e-08
1402.0,0.001385
1403.0,0.001813
1404.0,0.0005635
1405.0,3.203e-07
1406.0,0.001571
1407.0,0.0001341
1408.0,0.001271
1409.0,0.0004859
1410.0,0.0003617
1411.0,0.001583
1412.0,0.002009
1413.0,0.01713
1414.0,0.0002813
1415.0,0.0001439
1416.0,0.02553
1417.0,0.008606
1418.0,0.009875
1419.0,0.001577
1420.0,0.006079
1421.0,0.006619
1422.0,0.03307
1423.0,0.006649
1424.0,0.01225
1425.0,0.01833
1426.0,0.02001
1427.0,0.03497
1428.0,0.003356
1429.0,0.02695
1430.0,0.04396
1431.0,0.0478
1432.0,0.002666
1433.0,0.03109
1434.0,0.01616
1435.0,0.01733
1436.0,0.03158
1437.0,0.0242
1438.0,0.01074
1439.0,0.04213
1440.0,0.03165
1441.0,0.025
1442.0,0.02756
1443.0,0.03327
1444.0,0.04551
1445.0,0.03667
1446.0,0.01682
1447.0,0.02646
1448.0,0.08202
1449.0,0.07225
1450.0,0.01958
1451.0,0.008121
1452.0,0.04447
1453.0,0.05781
1454.0,0.09573
