interpolation:linear
wavelength,value
280.0,7.486999999999999e-22
280.5,2.4240000000000002e-20
281.0,1.293e-19
281.5,5.187e-19
282.0,8.74e-19
282.5,2.163e-18
283.0,6.808e-18
283.5,1.106e-17
284.0,1.796e-16
284.5,5.205e-16
285.0,9.653e-16
285.5,4.704e-15
286.0,1.884e-14
286.5,8.384e-14
287.0,2.388e-13
287.5,9.122e-13
288.0,2.922e-12
288.5,9.014e-12
289.0,2.429e-11
289.5,7.388e-11
290.0,2.059e-10
290.5,4.207e-10
291.0,9.045e-10
291.5,2.599e-09
292.0,5.84e-09
292.5,8.217e-09
293.0,1.768e-08
293.5,4.318e-08
294.0,6.77e-08
294.5,8.966e-08
295.0,1.521e-07
295.5,3.117e-07
296.0,5.803e-07
296.5,8.338e-07
297.0,1.157e-06
297.5,3.249e-06
298.0,5.364e-06
298.5,5.621e-06
299.0,1.296e-05
299.5,2.355e-05
300.0,2.744e-05
300.5,4.241e-05
301.0,8.64e-05
301.5,0.0001561
302.0,0.0001437
302.5,0.0002896
303.0,0.0005432
303.5,0.0007057
304.0,0.0006803
304.5,0.001086
305.0,0.001809
305.5,0.002199
306.0,0.002178
306.5,0.002819
307.0,0.004554
307.5,0.006572
308.0,0.007036
308.5,0.008654
309.0,0.008773
309.5,0.01058
310.0,0.01088
310.5,0.01784
311.0,0.02284
311.5,0.02224
312.0,0.02319
312.5,0.02901
313.0,0.03193
313.5,0.0306
314.0,0.03955
314.5,0.03663
315.0,0.04852
315.5,0.03976
316.0,0.03597
316.5,0.05324
317.0,0.06607
317.5,0.06819
318.0,0.05431
318.5,0.07011
319.0,0.08485
319.5,0.06705
320.0,0.08066
320.5,0.105
321.0,0.09686
321.5,0.09321
322.0,0.09571
322.5,0.08345
323.0,0.08518
323.5,0.107
324.0,0.1254
324.5,0.1261
325.0,0.1077
325.5,0.1413
326.0,0.1736
326.5,0.1761
327.0,0.1748
327.5,0.1679
328.0,0.1471
328.5,0.1578
329.0,0.1919
329.5,0.219
330.0,0.2201
330.5,0.1741
331.0,0.1767
331.5,0.1813
332.0,0.1985
332.5,0.1976
333.0,0.1964
333.5,0.1761
334.0,0.1802
334.5,0.2103
335.0,0.1989
335.5,0.2326
336.0,0.161
336.5,0.1879
337.0,0.1535
337.5,0.1907
338.0,0.1879
338.5,0.2174
339.0,0.2153
339.5,0.2072
340.0,0.2432
340.5,0.2195
341.0,0.2143
341.5,0.197
342.0,0.2357
342.5,0.2206
343.0,0.2426
343.5,0.2284
344.0,0.1688
344.5,0.1706
345.0,0.2261
345.5,0.2311
346.0,0.1966
346.5,0.2227
347.0,0.2391
347.5,0.1934
348.0,0.2207
348.5,0.2208
349.0,0.205
349.5,0.203
350.0,0.2513
350.5,0.2652
351.0,0.2369
351.5,0.2301
352.0,0.2475
352.5,0.1933
353.0,0.2437
353.5,0.2607
354.0,0.2708
354.5,0.2747
355.0,0.2739
355.5,0.2476
356.0,0.2592
356.5,0.2214
357.0,0.183
357.5,0.2241
358.0,0.1777
358.5,0.1519
359.0,0.2126
359.5,0.2709
360.0,0.2873
360.5,0.2298
361.0,0.2096
361.5,0.2416
362.0,0.2091
362.5,0.2896
363.0,0.2603
363.5,0.24
364.0,0.2937
364.5,0.2512
365.0,0.2559
365.5,0.3214
366.0,0.3407
366.5,0.3204
367.0,0.3122
367.5,0.3241
368.0,0.2838
368.5,0.2865
369.0,0.3096
369.5,0.3302
370.0,0.3522
370.5,0.2735
371.0,0.2924
371.5,0.366
372.0,0.243
372.5,0.2915
373.0,0.2967
373.5,0.1932
374.0,0.2808
374.5,0.2327
375.0,0.2263
375.5,0.338
376.0,0.2804
376.5,0.2906
377.0,0.3079
377.5,0.3604
378.0,0.3908
378.5,0.3695
379.0,0.305
379.5,0.2787
380.0,0.2899
380.5,0.3513
381.0,0.3523
381.5,0.2795
382.0,0.2484
382.5,0.2119
383.0,0.1963
383.5,0.1892
384.0,0.2088
384.5,0.3073
385.0,0.3049
385.5,0.2842
386.0,0.2435
386.5,0.3201
387.0,0.2661
387.5,0.299
388.0,0.2762
388.5,0.2732
389.0,0.295
389.5,0.3575
390.0,0.359
390.5,0.3306
391.0,0.3893
391.5,0.3973
392.0,0.3347
392.5,0.2999
393.0,0.167
393.5,0.1214
394.0,0.2472
394.5,0.3145
395.0,0.3839
395.5,0.3901
396.0,0.3384
396.5,0.198
397.0,0.1486
397.5,0.3024
398.0,0.4236
398.5,0.4381
399.0,0.4747
399.5,0.4734
400.0,0.4916
401.0,0.4972
402.0,0.5251
403.0,0.4994
404.0,0.4921
405.0,0.4924
406.0,0.485
407.0,0.4776
408.0,0.4965
409.0,0.5318
410.0,0.4651
411.0,0.5043
412.0,0.5423
413.0,0.5291
414.0,0.536
415.0,0.538
416.0,0.548
417.0,0.5348
418.0,0.5253
419.0,0.5326
420.0,0.5306
421.0,0.5555
422.0,0.5284
423.0,0.5165
424.0,0.5465
425.0,0.5459
426.0,0.5324
427.0,0.5228
428.0,0.5095
429.0,0.4832
430.0,0.4232
431.0,0.4195
432.0,0.5421
433.0,0.5455
434.0,0.5067
435.0,0.5293
436.0,0.597
437.0,0.5896
438.0,0.5373
439.0,0.5554
440.0,0.5735
441.0,0.5947
442.0,0.6382
443.0,0.6215
444.0,0.6355
445.0,0.6218
446.0,0.5941
447.0,0.6429
448.0,0.6527
449.0,0.6561
450.0,0.6749
451.0,0.7002
452.0,0.675
453.0,0.6352
454.0,0.6636
455.0,0.6678
456.0,0.684
457.0,0.6955
458.0,0.6716
459.0,0.6684
460.0,0.6701
461.0,0.6857
462.0,0.6915
463.0,0.6868
464.0,0.6761
465.0,0.6683
466.0,0.6752
467.0,0.6628
468.0,0.6707
469.0,0.6743
470.0,0.6527
471.0,0.6521
472.0,0.6871
473.0,0.6782
474.0,0.6789
475.0,0.6843
476.0,0.6633
477.0,0.6647
478.0,0.6834
479.0,0.6796
480.0,0.6813
481.0,0.6946
482.0,0.6988
483.0,0.691
484.0,0.6773
485.0,0.6457
486.0,0.5648
487.0,0.5924
488.0,0.6499
489.0,0.6517
490.0,0.6859
491.0,0.6744
492.0,0.637
493.0,0.6579
494.0,0.6646
495.0,0.6704
496.0,0.6746
497.0,0.685
498.0,0.6529
499.0,0.6611
500.0,0.6415
501.0,0.6294
502.0,0.6198
503.0,0.6443
504.0,0.6257
505.0,0.65
506.0,0.6709
507.0,0.6385
508.0,0.6193
509.0,0.6373
510.0,0.6343
511.0,0.6518
512.0,0.6592
513.0,0.624
514.0,0.6199
515.0,0.6138
516.0,0.6122
517.0,0.5441
518.0,0.572
519.0,0.5999
520.0,0.6216
521.0,0.6275
522.0,0.6278
523.0,0.6164
524.0,0.6381
525.0,0.645
526.0,0.616
527.0,0.58
528.0,0.6131
529.0,0.6459
530.0,0.6364
531.0,0.6457
532.0,0.6234
533.0,0.6052
534.0,0.6233
535.0,0.6371
536.0,0.6432
537.0,0.6181
538.0,0.6291
539.0,0.6238
540.0,0.598
541.0,0.6013
542.0,0.6198
543.0,0.6138
544.0,0.6239
545.0,0.6221
546.0,0.6243
547.0,0.6245
548.0,0.6173
549.0,0.6193
550.0,0.6267
551.0,0.6192
552.0,0.6235
553.0,0.6123
554.0,0.6268
555.0,0.6279
556.0,0.6197
557.0,0.6002
558.0,0.5954
559.0,0.5839
560.0,0.5909
561.0,0.5983
562.0,0.5935
563.0,0.6093
564.0,0.5923
565.0,0.5868
566.0,0.5779
567.0,0.5884
568.0,0.582
569.0,0.5659
570.0,0.5661
571.0,0.5632
572.0,0.5753
573.0,0.5811
574.0,0.579
575.0,0.5676
576.0,0.5625
577.0,0.5688
578.0,0.5609
579.0,0.5642
580.0,0.5766
581.0,0.5808
582.0,0.5929
583.0,0.5952
584.0,0.601
585.0,0.5867
586.0,0.5746
587.0,0.5865
588.0,0.5695
589.0,0.4991
590.0,0.5224
591.0,0.556
592.0,0.5471
593.0,0.5577
594.0,0.5528
595.0,0.5371
596.0,0.5628
597.0,0.5556
598.0,0.5555
599.0,0.5566
600.0,0.5585
601.0,0.5548
602.0,0.5512
603.0,0.5607
604.0,0.5703
605.0,0.5676
606.0,0.5657
607.0,0.5719
608.0,0.566
609.0,0.5674
610.0,0.5639
611.0,0.5671
612.0,0.5657
613.0,0.5589
614.0,0.5516
615.0,0.5641
616.0,0.5458
617.0,0.545
618.0,0.5662
619.0,0.5606
620.0,0.5641
621.0,0.5643
622.0,0.5573
623.0,0.5485
624.0,0.5394
625.0,0.5383
626.0,0.5461
627.0,0.5512
628.0,0.5023
629.0,0.5338
630.0,0.5211
631.0,0.5371
632.0,0.5315
633.0,0.5494
634.0,0.5454
635.0,0.5546
636.0,0.5481
637.0,0.5577
638.0,0.564
639.0,0.5582
640.0,0.5534
641.0,0.5534
642.0,0.5514
643.0,0.5589
644.0,0.5576
645.0,0.5583
646.0,0.5437
647.0,0.5339
648.0,0.5343
649.0,0.5236
650.0,0.5305
651.0,0.5544
652.0,0.5267
653.0,0.5472
654.0,0.5415
655.0,0.5191
656.0,0.4617
657.0,0.4743
658.0,0.533
659.0,0.5374
660.0,0.5399
661.0,0.5438
662.0,0.5441
663.0,0.5337
664.0,0.5412
665.0,0.5426
666.0,0.5435
667.0,0.5435
668.0,0.5442
669.0,0.5529
670.0,0.5508
671.0,0.5509
672.0,0.5463
673.0,0.5548
674.0,0.5529
675.0,0.5481
676.0,0.552
677.0,0.5467
678.0,0.5485
679.0,0.5398
680.0,0.5442
681.0,0.5407
682.0,0.54
683.0,0.539
684.0,0.5363
685.0,0.5411
686.0,0.5377
687.0,0.3046
688.0,0.3805
689.0,0.3827
690.0,0.4098
691.0,0.441
692.0,0.465
693.0,0.4606
694.0,0.4574
695.0,0.483
696.0,0.4839
697.0,0.5213
698.0,0.5131
699.0,0.4955
700.0,0.4893
701.0,0.4824
702.0,0.4878
703.0,0.4891
704.0,0.5079
705.0,0.5086
706.0,0.5094
707.0,0.5103
708.0,0.5112
709.0,0.5141
710.0,0.513
711.0,0.513
712.0,0.5125
713.0,0.5064
714.0,0.5085
715.0,0.4904
716.0,0.4901
717.0,0.4059
718.0,0.3707
719.0,0.338
720.0,0.3522
721.0,0.4
722.0,0.4697
723.0,0.4312
724.0,0.3812
725.0,0.3726
726.0,0.3908
727.0,0.4012
728.0,0.3708
729.0,0.3914
730.0,0.4132
731.0,0.3938
732.0,0.4283
733.0,0.46
734.0,0.473
735.0,0.4621
736.0,0.4614
737.0,0.4632
738.0,0.4753
739.0,0.4659
740.0,0.4796
741.0,0.4757
742.0,0.4771
743.0,0.4895
744.0,0.4887
745.0,0.4893
746.0,0.4915
747.0,0.4927
748.0,0.4917
749.0,0.4862
750.0,0.4859
751.0,0.481
752.0,0.4831
753.0,0.4857
754.0,0.4867
755.0,0.484
756.0,0.4838
757.0,0.4845
758.0,0.4784
759.0,0.4655
760.0,0.03883
761.0,0.016
762.0,0.1847
763.0,0.06987
764.0,0.1234
765.0,0.1845
766.0,0.2496
767.0,0.3408
768.0,0.4156
769.0,0.4295
770.0,0.4501
771.0,0.4564
772.0,0.4582
773.0,0.4616
774.0,0.4595
775.0,0.4562
776.0,0.4618
777.0,0.4557
778.0,0.453
779.0,0.4533
780.0,0.4509
781.0,0.4514
782.0,0.4542
783.0,0.4464
784.0,0.4487
785.0,0.4451
786.0,0.4498
787.0,0.4396
788.0,0.433
789.0,0.4326
790.0,0.4178
791.0,0.4247
792.0,0.4221
793.0,0.4149
794.0,0.4254
795.0,0.4317
796.0,0.4138
797.0,0.414
798.0,0.4306
799.0,0.427
800.0,0.4185
801.0,0.4161
802.0,0.4149
803.0,0.4112
804.0,0.4123
805.0,0.4123
806.0,0.4262
807.0,0.4205
808.0,0.4211
809.0,0.4115
810.0,0.407
811.0,0.405
812.0,0.3904
813.0,0.3807
814.0,0.3256
815.0,0.3242
816.0,0.3006
817.0,0.3069
818.0,0.2933
819.0,0.3358
820.0,0.3134
821.0,0.3778
822.0,0.3651
823.0,0.2307
824.0,0.3502
825.0,0.3711
826.0,0.3534
827.0,0.3767
828.0,0.3085
829.0,0.352
830.0,0.3464
831.0,0.3478
832.0,0.3351
833.0,0.3617
834.0,0.3454
835.0,0.3874
836.0,0.3656
837.0,0.3887
838.0,0.374
839.0,0.3834
840.0,0.3925
841.0,0.3858
842.0,0.3884
843.0,0.39
844.0,0.3836
845.0,0.3978
846.0,0.3964
847.0,0.3895
848.0,0.3863
849.0,0.3753
850.0,0.3597
851.0,0.38
852.0,0.3777
853.0,0.3642
854.0,0.3139
855.0,0.3457
856.0,0.3775
857.0,0.3864
858.0,0.3833
859.0,0.384
860.0,0.385
861.0,0.3828
862.0,0.3889
863.0,0.3981
864.0,0.3783
865.0,0.375
866.0,0.3372
867.0,0.3519
868.0,0.383
869.0,0.3751
870.0,0.3858
871.0,0.3805
872.0,0.3792
873.0,0.3785
874.0,0.374
875.0,0.3664
876.0,0.3702
877.0,0.374
878.0,0.3779
879.0,0.3721
880.0,0.3641
881.0,0.3583
882.0,0.3658
883.0,0.3674
884.0,0.3656
885.0,0.3683
886.0,0.3495
887.0,0.3544
888.0,0.359
889.0,0.3643
890.0,0.3597
891.0,0.3599
892.0,0.3474
893.0,0.3344
894.0,0.3182
895.0,0.2951
896.0,0.2763
897.0,0.2307
898.0,0.2552
899.0,0.1866
900.0,0.2656
901.0,0.1955
902.0,0.2397
903.0,0.2385
904.0,0.3158
905.0,0.3028
906.0,0.2816
907.0,0.2182
908.0,0.2244
909.0,0.2475
910.0,0.2106
911.0,0.2303
912.0,0.2417
913.0,0.2133
914.0,0.2131
915.0,0.2307
916.0,0.1938
917.0,0.2543
918.0,0.1981
919.0,0.2617
920.0,0.27
921.0,0.2808
922.0,0.2449
923.0,0.2718
924.0,0.2497
925.0,0.2446
926.0,0.2465
927.0,0.282
928.0,0.1895
929.0,0.1684
930.0,0.1252
931.0,0.1192
932.0,0.07858
933.0,0.06061
934.0,0.02667
935.0,0.06464
936.0,0.03602
937.0,0.03622
938.0,0.04612
939.0,0.1153
940.0,0.144
941.0,0.1018
942.0,0.1217
943.0,0.0748
944.0,0.08396
945.0,0.1065
946.0,0.04725
947.0,0.1051
948.0,0.07642
949.0,0.1475
950.0,0.03134
951.0,0.1464
952.0,0.06981
953.0,0.09601
954.0,0.1244
955.0,0.0978
956.0,0.1006
957.0,0.06931
958.0,0.1507
959.0,0.1116
960.0,0.1251
961.0,0.1468
962.0,0.1384
963.0,0.1652
964.0,0.1497
965.0,0.1647
966.0,0.1637
967.0,0.1623
968.0,0.239
969.0,0.2468
970.0,0.2244
971.0,0.2663
972.0,0.2528
973.0,0.2106
974.0,0.1989
975.0,0.2098
976.0,0.1939
977.0,0.2315
978.0,0.2154
979.0,0.2284
980.0,0.2132
981.0,0.2651
982.0,0.2499
983.0,0.238
984.0,0.2774
985.0,0.2489
986.0,0.2849
987.0,0.2762
988.0,0.2759
989.0,0.2857
990.0,0.2741
991.0,0.2862
992.0,0.2882
993.0,0.2787
994.0,0.2884
995.0,0.2885
996.0,0.2868
997.0,0.2874
998.0,0.2859
999.0,0.285
1000.0,0.2822
1001.0,0.2866
1002.0,0.2757
1003.0,0.2813
1004.0,0.2737
1005.0,0.2647
1006.0,0.2745
1007.0,0.2806
1008.0,0.2786
1009.0,0.2765
1010.0,0.275
1011.0,0.2793
1012.0,0.2763
1013.0,0.2788
1014.0,0.2768
1015.0,0.2749
1016.0,0.2736
1017.0,0.2742
1018.0,0.2735
1019.0,0.2665
1020.0,0.2719
1021.0,0.2717
1022.0,0.2692
1023.0,0.272
1024.0,0.2673
1025.0,0.2722
1026.0,0.2707
1027.0,0.2701
1028.0,0.2695
1029.0,0.2662
1030.0,0.2684
1031.0,0.2672
1032.0,0.2665
1033.0,0.2625
1034.0,0.2625
1035.0,0.2634
1036.0,0.2646
1037.0,0.2603
1038.0,0.2614
1039.0,0.2612
1040.0,0.2601
1041.0,0.2611
1042.0,0.2592
1043.0,0.2584
1044.0,0.2592
1045.0,0.2556
1046.0,0.2527
1047.0,0.2549
1048.0,0.2562
1049.0,0.2552
1050.0,0.2539
1051.0,0.2535
1052.0,0.2523
1053.0,0.2502
1054.0,0.2506
1055.0,0.2505
1056.0,0.2495
1057.0,0.2485
1058.0,0.2423
1059.0,0.2423
1060.0,0.2419
1061.0,0.2415
1062.0,0.2426
1063.0,0.24
1064.0,0.2429
1065.0,0.2408
1066.0,0.2363
1067.0,0.2393
1068.0,0.2337
1069.0,0.2268
1070.0,0.2342
1071.0,0.2388
1072.0,0.2353
1073.0,0.2321
1074.0,0.2392
1075.0,0.2242
1076.0,0.2388
1077.0,0.2329
1078.0,0.2277
1079.0,0.2355
1080.0,0.2294
1081.0,0.2205
1082.0,0.2266
1083.0,0.228
1084.0,0.2193
1085.0,0.2301
1086.0,0.2059
1087.0,0.2153
1088.0,0.2272
1089.0,0.2174
1090.0,0.211
1091.0,0.2257
1092.0,0.2257
1093.0,0.1836
1094.0,0.2055
1095.0,0.1919
1096.0,0.1816
1097.0,0.2206
1098.0,0.1776
1099.0,0.1865
1100.0,0.1703
1101.0,0.1734
1102.0,0.1635
1103.0,0.1604
1104.0,0.1608
1105.0,0.1816
1106.0,0.1264
1107.0,0.1701
1108.0,0.1368
1109.0,0.1384
1110.0,0.1672
1111.0,0.1037
1112.0,0.1379
1113.0,0.07822
1114.0,0.08802
1115.0,0.07237
1116.0,0.05258
1117.0,0.01453
1118.0,0.05864
1119.0,0.02484
1120.0,0.03074
1121.0,0.04312
1122.0,0.01475
1123.0,0.02796
1124.0,0.02354
1125.0,0.03177
1126.0,0.00788
1127.0,0.03615
1128.0,0.01797
1129.0,0.01946
1130.0,0.01191
1131.0,0.07838
1132.0,0.05956
1133.0,0.03246
1134.0,0.005961
1135.0,0.002388
1136.0,0.0253
1137.0,0.07496
1138.0,0.05187
1139.0,0.08874
1140.0,0.06977
1141.0,0.04942
1142.0,0.05896
1143.0,0.08864
1144.0,0.02591
1145.0,0.03134
1146.0,0.03374
1147.0,0.008717
1148.0,0.0762
1149.0,0.05763
1150.0,0.02876
1151.0,0.05144
1152.0,0.06719
1153.0,0.06854
1154.0,0.03039
1155.0,0.0924
1156.0,0.08089
1157.0,0.09516
1158.0,0.09399
1159.0,0.104
1160.0,0.08647
1161.0,0.1129
1162.0,0.1129
1163.0,0.1639
1164.0,0.1365
1165.0,0.1247
1166.0,0.1271
1167.0,0.1404
1168.0,0.141
1169.0,0.1455
1170.0,0.1617
1171.0,0.1574
1172.0,0.1625
1173.0,0.1614
1174.0,0.1072
1175.0,0.1596
1176.0,0.1801
1177.0,0.1697
1178.0,0.1214
1179.0,0.1816
1180.0,0.1571
1181.0,0.1623
1182.0,0.1053
1183.0,0.1609
1184.0,0.1485
1185.0,0.1412
1186.0,0.1744
1187.0,0.1639
1188.0,0.1059
1189.0,0.1523
1190.0,0.1708
1191.0,0.1579
1192.0,0.1736
1193.0,0.1649
1194.0,0.171
1195.0,0.1588
1196.0,0.1512
1197.0,0.1723
1198.0,0.1561
1199.0,0.1267
1200.0,0.1627
1201.0,0.1547
1202.0,0.1556
1203.0,0.1534
1204.0,0.1314
1205.0,0.1609
1206.0,0.1808
1207.0,0.1543
1208.0,0.1537
1209.0,0.1573
1210.0,0.1652
1211.0,0.1552
1212.0,0.1501
1213.0,0.1733
1214.0,0.155
1215.0,0.1516
1216.0,0.173
1217.0,0.1673
1218.0,0.1715
1219.0,0.1688
1220.0,0.1718
1221.0,0.1742
1222.0,0.1692
1223.0,0.1671
1224.0,0.1649
1225.0,0.1729
1226.0,0.175
1227.0,0.1583
1228.0,0.1765
1229.0,0.175
1230.0,0.1714
1231.0,0.1783
1232.0,0.1772
1233.0,0.1684
1234.0,0.1788
1235.0,0.1772
1236.0,0.1788
1237.0,0.1752
1238.0,0.1782
1239.0,0.1759
1240.0,0.1767
1241.0,0.1752
1242.0,0.1754
1243.0,0.1741
1244.0,0.1751
1245.0,0.176
1246.0,0.175
1247.0,0.1741
1248.0,0.1736
1249.0,0.1745
1250.0,0.1732
1251.0,0.1706
1252.0,0.1711
1253.0,0.1688
1254.0,0.1664
1255.0,0.1707
1256.0,0.1642
1257.0,0.1629
1258.0,0.1674
1259.0,0.1586
1260.0,0.1598
1261.0,0.1475
1262.0,0.1413
1263.0,0.1415
1264.0,0.1267
1265.0,0.1406
1266.0,0.133
1267.0,0.137
1268.0,0.1273
1269.0,0.06397
1270.0,0.1358
1271.0,0.1474
1272.0,0.1482
1273.0,0.1463
1274.0,0.1473
1275.0,0.15
1276.0,0.1521
1277.0,0.154
1278.0,0.1583
1279.0,0.1567
1280.0,0.1549
1281.0,0.1484
1282.0,0.144
1283.0,0.1549
1284.0,0.1584
1285.0,0.1596
1286.0,0.1623
1287.0,0.1588
1288.0,0.159
1289.0,0.1519
1290.0,0.1578
1291.0,0.1603
1292.0,0.1468
1293.0,0.1563
1294.0,0.1551
1295.0,0.1531
1296.0,0.1438
1297.0,0.1343
1298.0,0.1483
1299.0,0.1569
1300.0,0.1267
1301.0,0.1317
1302.0,0.1479
1303.0,0.1257
1304.0,0.1016
1305.0,0.1445
1306.0,0.144
1307.0,0.1059
1308.0,0.1268
1309.0,0.1421
1310.0,0.1034
1311.0,0.1203
1312.0,0.1162
1313.0,0.1127
1314.0,0.09894
1315.0,0.09637
1316.0,0.1173
1317.0,0.1104
1318.0,0.1224
1319.0,0.08898
1320.0,0.0876
1321.0,0.1043
1322.0,0.1042
1323.0,0.07301
1324.0,0.08752
1325.0,0.1151
1326.0,0.09537
1327.0,0.09002
1328.0,0.07578
1329.0,0.05226
1330.0,0.07043
1331.0,0.03745
1332.0,0.04022
1333.0,0.05697
1334.0,0.05137
1335.0,0.0724
1336.0,0.05438
1337.0,0.0471
1338.0,0.05073
1339.0,0.05123
1340.0,0.05132
1341.0,0.04661
1342.0,0.04936
1343.0,0.02758
1344.0,0.01705
1345.0,0.02439
1346.0,0.00908
1347.0,0.008724
1348.0,0.000304
1349.0,0.001277
1350.0,0.001482
1351.0,0.0002028
1352.0,2.667e-05
1353.0,7.584e-07
1354.0,4.078e-06
1355.0,8.844e-09
1356.0,3.623e-07
1357.0,5.521e-07
1358.0,1.101e-08
1359.0,5.735e-10
1360.0,3.587e-09
1361.0,1.13e-12
1362.0,2.608e-15
1363.0,3.303e-09
1364.0,1.456e-09
1365.0,8.174e-16
1366.0,1.79e-08
1367.0,9.656e-09
1368.0,6.091e-18
1369.0,5.352e-10
1370.0,1.895e-10
1371.0,8.132e-12
1372.0,5.46e-09
1373.0,2.041e-07
1374.0,1.52e-06
1375.0,2.479e-06
1376.0,3.787e-06
1377.0,1.586e-06
1378.0,1.74e-05
1379.0,6.757e-07
1380.0,6.86e-07
1381.0,1.48e-08
1382.0,4.343e-09
1383.0,5.157e-11
1384.0,5.117e-10
1385.0,6.812e-09
1386.0,2.894e-09
1387.0,1.068e-06
1388.0,2.578e-08
1389.0,6.618e-06
1390.0,5.419e-06
1391.0,3.44e-06
1392.0,2.105e-07
1393.0,1.411e-06
1394.0,3.072e-07
1395.0,1.539e-09
1396.0,1.696e-12
1397.0,4.676e-07
1398.0,1.801e-05
1399.0,1.187e-05
1400.0,5.965e-13
1401.0,3.311e-12
1402.0,7.23e-05
1403.0,7.728e-05
1404.0,2.176e-05
1405.0,5.277e-10
1406.0,4.303e-05
1407.0,5.248e-06
1408.0,3.723e-05
1409.0,8.241e-06
1410.0,9.53e-06
1411.0,7.037e-05
1412.0,0.0001162
1413.0,0.001994
1414.0,8.024e-06
1415.0,3.225e-06
1416.0,0.004848
1417.0,0.001053
1418.0,0.001044
1419.0,0.0001499
1420.0,0.0006299
1421.0,0.0007457
1422.0,0.006362
1423.0,0.001146
1424.0,0.002309
1425.0,0.003082
1426.0,0.004153
1427.0,0.008995
1428.0,0.0002667
1429.0,0.005929
1430.0,0.01227
1431.0,0.01404
1432.0,0.0002052
