interpolation:linear
wavelength,value
280.0,2.763e-22
280.5,9.09e-21
281.0,4.873e-20
281.5,4.02e-19
282.0,6.593e-19
282.5,1.636e-18
283.0,5.174e-18
283.5,8.425e-18
284.0,1.388e-16
284.5,4.049e-16
285.0,6.665e-16
285.5,3.329e-15
286.0,1.343e-14
286.5,6.051e-14
287.0,1.737e-13
287.5,6.7e-13
288.0,2.322e-12
288.5,6.989e-12
289.0,1.855e-11
289.5,5.589e-11
290.0,1.55e-10
290.5,3.158e-10
291.0,6.776e-10
291.5,1.945e-09
292.0,3.921e-09
292.5,5.512e-09
293.0,1.185e-08
293.5,2.893e-08
294.0,4.532e-08
294.5,6.212e-08
295.0,1.054e-07
295.5,1.771e-07
296.0,3.448e-07
296.5,4.872e-07
297.0,6.653e-07
297.5,1.814e-06
298.0,2.905e-06
298.5,2.962e-06
299.0,6.628e-06
299.5,1.134e-05
300.0,1.27e-05
300.5,1.877e-05
301.0,3.521e-05
301.5,5.809e-05
302.0,5.06e-05
302.5,0.0001021
303.0,0.0001921
303.5,0.000251
304.0,0.0002445
304.5,0.0004018
305.0,0.0007
305.5,0.0008773
306.0,0.0008796
306.5,0.001162
307.0,0.00197
307.5,0.002987
308.0,0.003223
308.5,0.004066
309.0,0.004128
309.5,0.005228
310.0,0.005502
310.5,0.009118
311.0,0.01188
311.5,0.01166
312.0,0.01264
312.5,0.01623
313.0,0.0181
313.5,0.01713
314.0,0.02282
314.5,0.02201
315.0,0.02936
315.5,0.02359
316.0,0.02205
316.5,0.03355
317.0,0.04162
317.5,0.0426
318.0,0.03458
318.5,0.04631
319.0,0.05709
319.5,0.04378
320.0,0.05243
320.5,0.07086
321.0,0.0676
321.5,0.06527
322.0,0.06463
322.5,0.05644
323.0,0.05899
323.5,0.07585
324.0,0.08925
324.5,0.08886
325.0,0.07489
325.5,0.1001
326.0,0.1239
326.5,0.1273
327.0,0.1257
327.5,0.12
328.0,0.1034
328.5,0.1132
329.0,0.14
329.5,0.1605
330.0,0.1607
330.5,0.1255
331.0,0.1268
331.5,0.1313
332.0,0.1458
332.5,0.146
333.0,0.1446
333.5,0.1284
334.0,0.1311
334.5,0.1548
335.0,0.1474
335.5,0.1728
336.0,0.1196
336.5,0.1388
337.0,0.1129
337.5,0.1399
338.0,0.1392
338.5,0.1616
339.0,0.1602
339.5,0.1541
340.0,0.1803
340.5,0.1629
341.0,0.1594
341.5,0.1468
342.0,0.1756
342.5,0.1645
343.0,0.1807
343.5,0.1701
344.0,0.1253
344.5,0.1269
345.0,0.1684
345.5,0.1723
346.0,0.1466
346.5,0.1662
347.0,0.1783
347.5,0.1442
348.0,0.1647
348.5,0.1648
349.0,0.1531
349.5,0.1517
350.0,0.1877
350.5,0.1981
351.0,0.177
351.5,0.1718
352.0,0.1848
352.5,0.1445
353.0,0.1822
353.5,0.195
354.0,0.2026
354.5,0.2055
355.0,0.2049
355.5,0.1853
356.0,0.194
356.5,0.1658
357.0,0.137
357.5,0.1678
358.0,0.1331
358.5,0.1138
359.0,0.1592
359.5,0.2028
360.0,0.2152
360.5,0.1721
361.0,0.157
361.5,0.1811
362.0,0.1568
362.5,0.2172
363.0,0.1953
363.5,0.1801
364.0,0.2204
364.5,0.1885
365.0,0.1921
365.5,0.2413
366.0,0.2559
366.5,0.2407
367.0,0.2345
367.5,0.2435
368.0,0.2133
368.5,0.2153
369.0,0.2327
369.5,0.2483
370.0,0.2649
370.5,0.2057
371.0,0.22
371.5,0.2754
372.0,0.1829
372.5,0.2194
373.0,0.2234
373.5,0.1455
374.0,0.2115
374.5,0.1753
375.0,0.1705
375.5,0.2547
376.0,0.2113
376.5,0.2191
377.0,0.2321
377.5,0.2718
378.0,0.2947
378.5,0.2787
379.0,0.2301
379.5,0.2102
380.0,0.2187
380.5,0.2651
381.0,0.266
381.5,0.211
382.0,0.1876
382.5,0.1601
383.0,0.1484
383.5,0.143
384.0,0.1579
384.5,0.2324
385.0,0.2306
385.5,0.215
386.0,0.1843
386.5,0.2423
387.0,0.2014
387.5,0.2264
388.0,0.2091
388.5,0.2069
389.0,0.2235
389.5,0.2709
390.0,0.2721
390.5,0.2506
391.0,0.2952
391.5,0.3012
392.0,0.2539
392.5,0.2275
393.0,0.1267
393.5,0.09216
394.0,0.1877
394.5,0.2388
395.0,0.2915
395.5,0.2963
396.0,0.257
396.5,0.1504
397.0,0.113
397.5,0.2299
398.0,0.322
398.5,0.3331
399.0,0.3611
399.5,0.3601
400.0,0.374
401.0,0.3773
402.0,0.3987
403.0,0.3794
404.0,0.3739
405.0,0.3743
406.0,0.3688
407.0,0.3634
408.0,0.3778
409.0,0.4049
410.0,0.3543
411.0,0.3842
412.0,0.4134
413.0,0.4034
414.0,0.4089
415.0,0.4106
416.0,0.4184
417.0,0.4085
418.0,0.4014
419.0,0.4072
420.0,0.4057
421.0,0.425
422.0,0.4043
423.0,0.3953
424.0,0.4184
425.0,0.4181
426.0,0.408
427.0,0.4008
428.0,0.3907
429.0,0.3707
430.0,0.3248
431.0,0.322
432.0,0.4164
433.0,0.4191
434.0,0.3894
435.0,0.4068
436.0,0.4591
437.0,0.4537
438.0,0.4136
439.0,0.4273
440.0,0.4415
441.0,0.458
442.0,0.4916
443.0,0.4787
444.0,0.4897
445.0,0.4792
446.0,0.4582
447.0,0.4961
448.0,0.5036
449.0,0.5066
450.0,0.5213
451.0,0.541
452.0,0.5216
453.0,0.491
454.0,0.5133
455.0,0.5166
456.0,0.5292
457.0,0.5382
458.0,0.5195
459.0,0.5171
460.0,0.5184
461.0,0.5306
462.0,0.5353
463.0,0.5317
464.0,0.5238
465.0,0.5181
466.0,0.5237
467.0,0.514
468.0,0.5202
469.0,0.523
470.0,0.5063
471.0,0.5059
472.0,0.5331
473.0,0.5262
474.0,0.5265
475.0,0.5304
476.0,0.5138
477.0,0.5147
478.0,0.5293
479.0,0.5265
480.0,0.528
481.0,0.5386
482.0,0.5422
483.0,0.5366
484.0,0.5261
485.0,0.5018
486.0,0.4393
487.0,0.4609
488.0,0.5057
489.0,0.5071
490.0,0.5339
491.0,0.5251
492.0,0.496
493.0,0.5123
494.0,0.5176
495.0,0.5221
496.0,0.5254
497.0,0.5335
498.0,0.5084
499.0,0.5146
500.0,0.4992
501.0,0.4895
502.0,0.4817
503.0,0.5002
504.0,0.4845
505.0,0.5043
506.0,0.5205
507.0,0.4955
508.0,0.481
509.0,0.4952
510.0,0.4932
511.0,0.5071
512.0,0.513
513.0,0.4856
514.0,0.4826
515.0,0.4778
516.0,0.4765
517.0,0.4236
518.0,0.4453
519.0,0.467
520.0,0.4839
521.0,0.4884
522.0,0.4885
523.0,0.4795
524.0,0.4962
525.0,0.5012
526.0,0.4785
527.0,0.4503
528.0,0.4757
529.0,0.501
530.0,0.4935
531.0,0.5006
532.0,0.4832
533.0,0.4691
534.0,0.4832
535.0,0.4941
536.0,0.499
537.0,0.4797
538.0,0.4883
539.0,0.4842
540.0,0.464
541.0,0.4662
542.0,0.4804
543.0,0.476
544.0,0.4835
545.0,0.4822
546.0,0.4836
547.0,0.484
548.0,0.4785
549.0,0.4802
550.0,0.486
551.0,0.4802
552.0,0.4836
553.0,0.4748
554.0,0.486
555.0,0.4868
556.0,0.4803
557.0,0.4651
558.0,0.4611
559.0,0.452
560.0,0.4573
561.0,0.4628
562.0,0.4589
563.0,0.4708
564.0,0.4574
565.0,0.453
566.0,0.4459
567.0,0.4537
568.0,0.4481
569.0,0.4344
570.0,0.4347
571.0,0.4329
572.0,0.4412
573.0,0.4455
574.0,0.4437
575.0,0.4347
576.0,0.4308
577.0,0.4358
578.0,0.4301
579.0,0.4332
580.0,0.4437
581.0,0.4477
582.0,0.4577
583.0,0.46
584.0,0.4648
585.0,0.454
586.0,0.4447
587.0,0.4535
588.0,0.4387
589.0,0.3814
590.0,0.3994
591.0,0.4271
592.0,0.4191
593.0,0.4286
594.0,0.4243
595.0,0.411
596.0,0.4333
597.0,0.427
598.0,0.4278
599.0,0.429
600.0,0.4311
601.0,0.4287
602.0,0.426
603.0,0.4337
604.0,0.4412
605.0,0.4392
606.0,0.4381
607.0,0.4432
608.0,0.4389
609.0,0.4403
610.0,0.4378
611.0,0.4405
612.0,0.4396
613.0,0.4344
614.0,0.4291
615.0,0.439
616.0,0.425
617.0,0.4245
618.0,0.4412
619.0,0.4369
620.0,0.4396
621.0,0.4396
622.0,0.434
623.0,0.427
624.0,0.4201
625.0,0.4191
626.0,0.4252
627.0,0.4285
628.0,0.3832
629.0,0.4124
630.0,0.4023
631.0,0.4172
632.0,0.4133
633.0,0.4283
634.0,0.4261
635.0,0.4337
636.0,0.429
637.0,0.4369
638.0,0.4425
639.0,0.4382
640.0,0.4348
641.0,0.4351
642.0,0.4339
643.0,0.4398
644.0,0.4391
645.0,0.4394
646.0,0.4271
647.0,0.4173
648.0,0.4179
649.0,0.4091
650.0,0.4172
651.0,0.4364
652.0,0.4121
653.0,0.431
654.0,0.4267
655.0,0.4077
656.0,0.3635
657.0,0.3737
658.0,0.4207
659.0,0.4245
660.0,0.4267
661.0,0.4299
662.0,0.4297
663.0,0.4216
664.0,0.4284
665.0,0.43
666.0,0.4309
667.0,0.4312
668.0,0.4321
669.0,0.4392
670.0,0.4376
671.0,0.4379
672.0,0.4344
673.0,0.4412
674.0,0.4399
675.0,0.4361
676.0,0.4394
677.0,0.4353
678.0,0.4368
679.0,0.4299
680.0,0.4335
681.0,0.4308
682.0,0.4303
683.0,0.4295
684.0,0.4273
685.0,0.4313
686.0,0.4284
687.0,0.2146
688.0,0.2816
689.0,0.2837
690.0,0.3086
691.0,0.338
692.0,0.3612
693.0,0.3576
694.0,0.356
695.0,0.3798
696.0,0.3808
697.0,0.4145
698.0,0.4079
699.0,0.391
700.0,0.3859
701.0,0.3792
702.0,0.3847
703.0,0.386
704.0,0.4027
705.0,0.4032
706.0,0.4045
707.0,0.4055
708.0,0.4062
709.0,0.4097
710.0,0.4081
711.0,0.4086
712.0,0.4088
713.0,0.4033
714.0,0.4053
715.0,0.3895
716.0,0.389
717.0,0.3117
718.0,0.284
719.0,0.2581
720.0,0.2678
721.0,0.3102
722.0,0.3708
723.0,0.3373
724.0,0.2943
725.0,0.2864
726.0,0.3006
727.0,0.3114
728.0,0.2845
729.0,0.3041
730.0,0.3199
731.0,0.3043
732.0,0.335
733.0,0.3633
734.0,0.3748
735.0,0.3655
736.0,0.3647
737.0,0.3662
738.0,0.3788
739.0,0.3714
740.0,0.3832
741.0,0.3806
742.0,0.3822
743.0,0.3923
744.0,0.392
745.0,0.3928
746.0,0.3946
747.0,0.3956
748.0,0.3949
749.0,0.3904
750.0,0.3903
751.0,0.3864
752.0,0.3881
753.0,0.3902
754.0,0.3911
755.0,0.3888
756.0,0.3887
757.0,0.3893
758.0,0.3843
759.0,0.372
760.0,0.01873
761.0,0.006679
762.0,0.1215
763.0,0.03758
764.0,0.07441
765.0,0.1213
766.0,0.1765
767.0,0.2558
768.0,0.3255
769.0,0.3396
770.0,0.3596
771.0,0.3663
772.0,0.3682
773.0,0.3711
774.0,0.3696
775.0,0.367
776.0,0.3715
777.0,0.3667
778.0,0.3644
779.0,0.3647
780.0,0.3628
781.0,0.3632
782.0,0.3655
783.0,0.3593
784.0,0.3612
785.0,0.3582
786.0,0.3618
787.0,0.3521
788.0,0.3462
789.0,0.3459
790.0,0.3322
791.0,0.3396
792.0,0.3378
793.0,0.3318
794.0,0.3421
795.0,0.3467
796.0,0.3296
797.0,0.3295
798.0,0.3455
799.0,0.3421
800.0,0.3347
801.0,0.3321
802.0,0.3311
803.0,0.3277
804.0,0.3289
805.0,0.3298
806.0,0.3423
807.0,0.3374
808.0,0.338
809.0,0.3292
810.0,0.325
811.0,0.3221
812.0,0.3084
813.0,0.3002
814.0,0.2521
815.0,0.2514
816.0,0.2325
817.0,0.2375
818.0,0.2259
819.0,0.2627
820.0,0.2438
821.0,0.3003
822.0,0.2892
823.0,0.174
824.0,0.275
825.0,0.2951
826.0,0.2789
827.0,0.2994
828.0,0.2393
829.0,0.2782
830.0,0.2734
831.0,0.2744
832.0,0.2634
833.0,0.2869
834.0,0.2723
835.0,0.3098
836.0,0.2893
837.0,0.3109
838.0,0.2975
839.0,0.3068
840.0,0.3144
841.0,0.3084
842.0,0.3115
843.0,0.3139
844.0,0.3082
845.0,0.3204
846.0,0.3194
847.0,0.3142
848.0,0.3112
849.0,0.3023
850.0,0.2898
851.0,0.3056
852.0,0.304
853.0,0.2936
854.0,0.2527
855.0,0.2787
856.0,0.3041
857.0,0.3117
858.0,0.309
859.0,0.3098
860.0,0.3107
861.0,0.3089
862.0,0.314
863.0,0.3214
864.0,0.3054
865.0,0.3028
866.0,0.2723
867.0,0.2842
868.0,0.3093
869.0,0.3029
870.0,0.3116
871.0,0.3073
872.0,0.3063
873.0,0.3057
874.0,0.3021
875.0,0.2959
876.0,0.2989
877.0,0.3021
878.0,0.3051
879.0,0.3005
880.0,0.2941
881.0,0.2891
882.0,0.2951
883.0,0.2966
884.0,0.295
885.0,0.2972
886.0,0.2812
887.0,0.2858
888.0,0.2892
889.0,0.2942
890.0,0.2895
891.0,0.2901
892.0,0.2789
893.0,0.2675
894.0,0.2522
895.0,0.2309
896.0,0.2157
897.0,0.1769
898.0,0.1971
899.0,0.1407
900.0,0.2072
901.0,0.1474
902.0,0.1853
903.0,0.1827
904.0,0.2501
905.0,0.2389
906.0,0.2213
907.0,0.1662
908.0,0.1722
909.0,0.1917
910.0,0.1594
911.0,0.1776
912.0,0.1863
913.0,0.1613
914.0,0.162
915.0,0.1748
916.0,0.1466
917.0,0.1959
918.0,0.1494
919.0,0.203
920.0,0.2126
921.0,0.2207
922.0,0.1898
923.0,0.2141
924.0,0.1925
925.0,0.1889
926.0,0.1896
927.0,0.2196
928.0,0.1401
929.0,0.1224
930.0,0.0877
931.0,0.08326
932.0,0.05175
933.0,0.03866
934.0,0.01468
935.0,0.04221
936.0,0.02188
937.0,0.022
938.0,0.0286
939.0,0.08045
940.0,0.1031
941.0,0.06993
942.0,0.085
943.0,0.05004
944.0,0.05865
945.0,0.07383
946.0,0.02995
947.0,0.07205
948.0,0.0522
949.0,0.1043
950.0,0.01883
951.0,0.1037
952.0,0.04615
953.0,0.06591
954.0,0.08812
955.0,0.06746
956.0,0.07291
957.0,0.04571
958.0,0.1115
959.0,0.07926
960.0,0.08886
961.0,0.1072
962.0,0.101
963.0,0.123
964.0,0.1109
965.0,0.1224
966.0,0.1216
967.0,0.1201
968.0,0.1875
969.0,0.1918
970.0,0.1738
971.0,0.2106
972.0,0.1989
973.0,0.1614
974.0,0.1522
975.0,0.1619
976.0,0.147
977.0,0.1812
978.0,0.1663
979.0,0.1775
980.0,0.1652
981.0,0.2097
982.0,0.1961
983.0,0.186
984.0,0.2216
985.0,0.1952
986.0,0.229
987.0,0.2206
988.0,0.2205
989.0,0.2305
990.0,0.219
991.0,0.2308
992.0,0.2325
993.0,0.2235
994.0,0.2329
995.0,0.2332
996.0,0.2316
997.0,0.2322
998.0,0.2309
999.0,0.2302
1000.0,0.2276
1001.0,0.2315
1002.0,0.2212
1003.0,0.2272
1004.0,0.2206
1005.0,0.214
1006.0,0.2216
1007.0,0.2267
1008.0,0.2248
1009.0,0.2228
1010.0,0.2214
1011.0,0.2256
1012.0,0.2229
1013.0,0.2253
1014.0,0.2237
1015.0,0.2221
1016.0,0.221
1017.0,0.2214
1018.0,0.2211
1019.0,0.2149
1020.0,0.2197
1021.0,0.2197
1022.0,0.2174
1023.0,0.2196
1024.0,0.2152
1025.0,0.22
1026.0,0.2186
1027.0,0.2182
1028.0,0.2176
1029.0,0.2149
1030.0,0.2169
1031.0,0.2159
1032.0,0.2154
1033.0,0.2121
1034.0,0.2122
1035.0,0.2129
1036.0,0.2138
1037.0,0.2104
1038.0,0.2112
1039.0,0.211
1040.0,0.2101
1041.0,0.2108
1042.0,0.2093
1043.0,0.2086
1044.0,0.2092
1045.0,0.2063
1046.0,0.2039
1047.0,0.2057
1048.0,0.2067
1049.0,0.2058
1050.0,0.2047
1051.0,0.2043
1052.0,0.2033
1053.0,0.2015
1054.0,0.2017
1055.0,0.2016
1056.0,0.2006
1057.0,0.1998
1058.0,0.1947
1059.0,0.1946
1060.0,0.1942
1061.0,0.1938
1062.0,0.1946
1063.0,0.1925
1064.0,0.1948
1065.0,0.1929
1066.0,0.1895
1067.0,0.1918
1068.0,0.1872
1069.0,0.1818
1070.0,0.1875
1071.0,0.1918
1072.0,0.1886
1073.0,0.1861
1074.0,0.1924
1075.0,0.1789
1076.0,0.192
1077.0,0.1864
1078.0,0.1819
1079.0,0.1896
1080.0,0.1836
1081.0,0.1757
1082.0,0.1819
1083.0,0.1834
1084.0,0.1746
1085.0,0.1844
1086.0,0.1631
1087.0,0.1717
1088.0,0.1826
1089.0,0.1731
1090.0,0.1675
1091.0,0.181
1092.0,0.1812
1093.0,0.1439
1094.0,0.1645
1095.0,0.1504
1096.0,0.1413
1097.0,0.1771
1098.0,0.1376
1099.0,0.145
1100.0,0.1311
1101.0,0.1341
1102.0,0.1254
1103.0,0.1223
1104.0,0.1227
1105.0,0.1409
1106.0,0.09275
1107.0,0.131
1108.0,0.1021
1109.0,0.1038
1110.0,0.128
1111.0,0.07506
1112.0,0.1036
1113.0,0.05485
1114.0,0.06177
1115.0,0.05036
1116.0,0.03457
1117.0,0.00807
1118.0,0.03892
1119.0,0.01494
1120.0,0.01817
1121.0,0.02631
1122.0,0.007841
1123.0,0.0166
1124.0,0.01395
1125.0,0.01928
1126.0,0.003796
1127.0,0.02204
1128.0,0.009707
1129.0,0.01061
1130.0,0.006379
1131.0,0.05207
1132.0,0.03875
1133.0,0.01914
1134.0,0.002851
1135.0,0.001204
1136.0,0.01424
1137.0,0.04897
1138.0,0.03347
1139.0,0.06256
1140.0,0.04736
1141.0,0.03197
1142.0,0.03899
1143.0,0.06101
1144.0,0.01597
1145.0,0.01844
1146.0,0.01983
1147.0,0.004174
1148.0,0.052
1149.0,0.03806
1150.0,0.01831
1151.0,0.03321
1152.0,0.04503
1153.0,0.04728
1154.0,0.0182
1155.0,0.06509
1156.0,0.05597
1157.0,0.06832
1158.0,0.06736
1159.0,0.07545
1160.0,0.06222
1161.0,0.08407
1162.0,0.08369
1163.0,0.127
1164.0,0.104
1165.0,0.09309
1166.0,0.09661
1167.0,0.1076
1168.0,0.1077
1169.0,0.1115
1170.0,0.1256
1171.0,0.1223
1172.0,0.1275
1173.0,0.1254
1174.0,0.07988
1175.0,0.1252
1176.0,0.1436
1177.0,0.1337
1178.0,0.093
1179.0,0.1448
1180.0,0.1228
1181.0,0.1269
1182.0,0.07918
1183.0,0.1263
1184.0,0.1155
1185.0,0.1088
1186.0,0.1379
1187.0,0.1284
1188.0,0.07896
1189.0,0.1192
1190.0,0.1353
1191.0,0.1228
1192.0,0.1378
1193.0,0.1301
1194.0,0.1354
1195.0,0.1241
1196.0,0.1174
1197.0,0.1371
1198.0,0.1236
1199.0,0.09723
1200.0,0.1284
1201.0,0.1209
1202.0,0.1227
1203.0,0.1201
1204.0,0.1018
1205.0,0.1277
1206.0,0.145
1207.0,0.1211
1208.0,0.1217
1209.0,0.1246
1210.0,0.1316
1211.0,0.1226
1212.0,0.1166
1213.0,0.138
1214.0,0.1211
1215.0,0.1183
1216.0,0.138
1217.0,0.1329
1218.0,0.1368
1219.0,0.1342
1220.0,0.1371
1221.0,0.1394
1222.0,0.1351
1223.0,0.1332
1224.0,0.1307
1225.0,0.1382
1226.0,0.1404
1227.0,0.1253
1228.0,0.142
1229.0,0.1404
1230.0,0.1372
1231.0,0.1439
1232.0,0.1429
1233.0,0.1343
1234.0,0.1446
1235.0,0.1431
1236.0,0.1446
1237.0,0.1411
1238.0,0.1441
1239.0,0.1422
1240.0,0.143
1241.0,0.1413
1242.0,0.1419
1243.0,0.1408
1244.0,0.1415
1245.0,0.1423
1246.0,0.1415
1247.0,0.1407
1248.0,0.1401
1249.0,0.1409
1250.0,0.1398
1251.0,0.1374
1252.0,0.1382
1253.0,0.1357
1254.0,0.1334
1255.0,0.1377
1256.0,0.1314
1257.0,0.1301
1258.0,0.1345
1259.0,0.1259
1260.0,0.127
1261.0,0.1152
1262.0,0.1094
1263.0,0.1095
1264.0,0.0958
1265.0,0.1089
1266.0,0.1016
1267.0,0.1056
1268.0,0.09669
1269.0,0.04144
1270.0,0.1043
1271.0,0.1154
1272.0,0.1163
1273.0,0.1146
1274.0,0.1156
1275.0,0.1182
1276.0,0.1202
1277.0,0.1222
1278.0,0.1264
1279.0,0.1251
1280.0,0.1237
1281.0,0.1189
1282.0,0.116
1283.0,0.1246
1284.0,0.1273
1285.0,0.1284
1286.0,0.131
1287.0,0.1275
1288.0,0.1279
1289.0,0.1209
1290.0,0.1269
1291.0,0.1292
1292.0,0.1162
1293.0,0.1255
1294.0,0.1244
1295.0,0.122
1296.0,0.1134
1297.0,0.105
1298.0,0.118
1299.0,0.1261
1300.0,0.09876
1301.0,0.1032
1302.0,0.1177
1303.0,0.09824
1304.0,0.07668
1305.0,0.1149
1306.0,0.1141
1307.0,0.08097
1308.0,0.09966
1309.0,0.112
1310.0,0.07877
1311.0,0.09385
1312.0,0.09033
1313.0,0.08683
1314.0,0.07514
1315.0,0.0726
1316.0,0.09098
1317.0,0.08515
1318.0,0.09565
1319.0,0.0663
1320.0,0.06587
1321.0,0.07974
1322.0,0.07893
1323.0,0.0527
1324.0,0.06539
1325.0,0.08874
1326.0,0.07198
1327.0,0.06743
1328.0,0.05579
1329.0,0.03624
1330.0,0.05019
1331.0,0.02448
1332.0,0.0269
1333.0,0.03852
1334.0,0.03654
1335.0,0.05191
1336.0,0.03761
1337.0,0.03239
1338.0,0.03464
1339.0,0.03527
1340.0,0.03605
1341.0,0.03105
1342.0,0.03316
1343.0,0.0163
1344.0,0.01036
1345.0,0.01449
1346.0,0.004431
1347.0,0.004071
1348.0,9.849e-05
1349.0,0.0004426
1350.0,0.0005369
1351.0,5.258e-05
1352.0,4.493e-06
1353.0,1.193e-07
1354.0,7.04e-07
1355.0,1.76e-09
1356.0,5.759e-08
1357.0,8.681e-08
1358.0,2.12e-09
1359.0,2.114e-10
1360.0,8.478e-10
1361.0,8.23e-13
1362.0,2.246e-15
1363.0,1.041e-09
1364.0,4.376e-10
1365.0,7.837e-16
1366.0,4.668e-09
1367.0,2.084e-09
1368.0,6.051e-18
1369.0,1.615e-10
1370.0,7.625e-11
1371.0,4.248e-12
1372.0,1.151e-09
1373.0,3.217e-08
1374.0,2.319e-07
1375.0,3.56e-07
1376.0,6.568e-07
1377.0,2.704e-07
1378.0,2.826e-06
1379.0,1.183e-07
1380.0,1.063e-07
1381.0,2.392e-09
1382.0,9.71e-10
1383.0,1.385e-11
1384.0,1.712e-10
1385.0,1.17e-09
1386.0,7.957e-10
1387.0,1.546e-07
1388.0,4.107e-09
1389.0,1.014e-06
1390.0,7.951e-07
1391.0,5.2e-07
1392.0,3.368e-08
1393.0,2.341e-07
1394.0,4.745e-08
1395.0,2.92e-10
1396.0,1.074e-12
1397.0,7.432e-08
1398.0,2.767e-06
1399.0,1.877e-06
1400.0,4.575e-13
1401.0,1.912e-12
1402.0,1.835e-05
1403.0,1.734e-05
1404.0,4.535e-06
1405.0,1.215e-10
1406.0,7.5e-06
1407.0,1.251e-06
1408.0,6.742e-06
1409.0,1.239e-06
1410.0,1.825e-06
1411.0,1.623e-05
1412.0,3.057e-05
1413.0,0.0006812
1414.0,1.607e-06
1415.0,5.967e-07
1416.0,0.002207
1417.0,0.0004076
1418.0,0.0003427
1419.0,4.749e-05
1420.0,0.0002059
1421.0,0.0002805
1422.0,0.002879
1423.0,0.0005105
1424.0,0.001095
1425.0,0.001344
1426.0,0.002042
1427.0,0.004747
1428.0,8.16e-05
1429.0,0.002885
1430.0,0.006812
1431.0,0.007965
