interpolation:linear
wavelength,value
280.0,4.682e-23
280.5,1.577e-21
281.0,8.547e-21
281.5,2.782e-19
282.0,4.917e-19
282.5,1.137e-18
283.0,3.501e-18
283.5,5.681e-18
284.0,9.291e-17
284.5,2.727e-16
285.0,7.332e-16
285.5,3.01e-15
286.0,1.174e-14
286.5,5.054e-14
287.0,1.426e-13
287.5,5.429e-13
288.0,1.712e-12
288.5,4.872e-12
289.0,1.256e-11
289.5,3.722e-11
290.0,1.027e-10
290.5,2.093e-10
291.0,4.499e-10
291.5,1.296e-09
292.0,2.658e-09
292.5,3.696e-09
293.0,7.843e-09
293.5,1.884e-08
294.0,2.937e-08
294.5,3.583e-08
295.0,6.021e-08
295.5,1.018e-07
296.0,1.905e-07
296.5,2.58e-07
297.0,3.392e-07
297.5,8.694e-07
298.0,1.313e-06
298.5,1.276e-06
299.0,2.713e-06
299.5,4.21e-06
300.0,4.446e-06
300.5,6.165e-06
301.0,1.036e-05
301.5,1.537e-05
302.0,1.266e-05
302.5,2.418e-05
303.0,4.191e-05
303.5,5.207e-05
304.0,4.961e-05
304.5,7.716e-05
305.0,0.000125
305.5,0.00015
306.0,0.0001478
306.5,0.0001901
307.0,0.0003042
307.5,0.0004371
308.0,0.0004674
308.5,0.0005746
309.0,0.0006245
309.5,0.0008753
310.0,0.0009659
310.5,0.001639
311.0,0.002222
311.5,0.002217
312.0,0.002622
312.5,0.003568
313.0,0.004103
313.5,0.003771
314.0,0.005394
314.5,0.005725
315.0,0.007766
315.5,0.005948
316.0,0.006014
316.5,0.009802
317.0,0.01214
317.5,0.01217
318.0,0.01036
318.5,0.01519
319.0,0.01961
319.5,0.01395
320.0,0.0165
320.5,0.02451
321.0,0.02547
321.5,0.0248
322.0,0.02237
322.5,0.01962
323.0,0.02177
323.5,0.03158
324.0,0.03761
324.5,0.03623
325.0,0.02788
325.5,0.03916
326.0,0.05258
326.5,0.05618
327.0,0.05465
327.5,0.05118
328.0,0.0417
328.5,0.04875
329.0,0.06337
329.5,0.07373
330.0,0.07288
330.5,0.05473
331.0,0.05454
331.5,0.05812
332.0,0.0672
332.5,0.06853
333.0,0.06713
333.5,0.05778
334.0,0.0587
334.5,0.07169
335.0,0.0696
335.5,0.08262
336.0,0.05717
336.5,0.06481
337.0,0.05192
337.5,0.06401
338.0,0.06548
338.5,0.07727
339.0,0.07673
339.5,0.07368
340.0,0.08479
340.5,0.07679
341.0,0.07626
341.5,0.07043
342.0,0.08433
342.5,0.07905
343.0,0.08662
343.5,0.08137
344.0,0.05906
344.5,0.0605
345.0,0.08063
345.5,0.0826
346.0,0.07036
346.5,0.0798
347.0,0.08542
347.5,0.06901
348.0,0.07901
348.5,0.07917
349.0,0.07356
349.5,0.07283
350.0,0.09015
350.5,0.09512
351.0,0.08483
351.5,0.08206
352.0,0.08845
352.5,0.06923
353.0,0.08739
353.5,0.09358
354.0,0.09725
354.5,0.09865
355.0,0.09828
355.5,0.08889
356.0,0.09311
356.5,0.07953
357.0,0.06572
357.5,0.0805
358.0,0.06384
358.5,0.05459
359.0,0.07634
359.5,0.09717
360.0,0.1031
360.5,0.08249
361.0,0.07529
361.5,0.08682
362.0,0.07518
362.5,0.1042
363.0,0.09364
363.5,0.08633
364.0,0.1057
364.5,0.09036
365.0,0.09208
365.5,0.1157
366.0,0.1227
366.5,0.1154
367.0,0.1124
367.5,0.1167
368.0,0.1022
368.5,0.1032
369.0,0.1116
369.5,0.119
370.0,0.127
370.5,0.09862
371.0,0.1055
371.5,0.132
372.0,0.08768
372.5,0.1052
373.0,0.1071
373.5,0.06976
374.0,0.1014
374.5,0.08408
375.0,0.08179
375.5,0.1222
376.0,0.1014
376.5,0.1051
377.0,0.1114
377.5,0.1304
378.0,0.1414
378.5,0.1337
379.0,0.1104
379.5,0.1009
380.0,0.105
380.5,0.1273
381.0,0.1277
381.5,0.1013
382.0,0.09011
382.5,0.07692
383.0,0.07129
383.5,0.06873
384.0,0.07589
384.5,0.1117
385.0,0.1109
385.5,0.1034
386.0,0.08863
386.5,0.1166
387.0,0.09692
387.5,0.109
388.0,0.1007
388.5,0.09963
389.0,0.1076
389.5,0.1305
390.0,0.1311
390.5,0.1207
391.0,0.1423
391.5,0.1452
392.0,0.1224
392.5,0.1097
393.0,0.06112
393.5,0.04448
394.0,0.09059
394.5,0.1153
395.0,0.1408
395.5,0.1431
396.0,0.1242
396.5,0.07271
397.0,0.05463
397.5,0.1112
398.0,0.1558
398.5,0.1612
399.0,0.1748
399.5,0.1744
400.0,0.1811
401.0,0.1812
402.0,0.1917
403.0,0.1825
404.0,0.18
405.0,0.1803
406.0,0.1778
407.0,0.1753
408.0,0.1823
409.0,0.1954
410.0,0.1711
411.0,0.1858
412.0,0.2001
413.0,0.1953
414.0,0.1981
415.0,0.1991
416.0,0.2031
417.0,0.1984
418.0,0.195
419.0,0.198
420.0,0.1974
421.0,0.2069
422.0,0.197
423.0,0.1927
424.0,0.204
425.0,0.204
426.0,0.1993
427.0,0.1959
428.0,0.1911
429.0,0.1816
430.0,0.1593
431.0,0.1579
432.0,0.2044
433.0,0.2059
434.0,0.1914
435.0,0.2
436.0,0.226
437.0,0.2236
438.0,0.204
439.0,0.2106
440.0,0.2177
441.0,0.226
442.0,0.2427
443.0,0.2363
444.0,0.242
445.0,0.2369
446.0,0.227
447.0,0.2462
448.0,0.2498
449.0,0.2516
450.0,0.2591
451.0,0.269
452.0,0.2596
453.0,0.2446
454.0,0.2561
455.0,0.2577
456.0,0.2642
457.0,0.2687
458.0,0.2591
459.0,0.258
460.0,0.2585
461.0,0.2646
462.0,0.2673
463.0,0.2656
464.0,0.2622
465.0,0.2599
466.0,0.2631
467.0,0.2581
468.0,0.2613
469.0,0.2627
470.0,0.2542
471.0,0.2542
472.0,0.2679
473.0,0.2645
474.0,0.2644
475.0,0.266
476.0,0.2572
477.0,0.2573
478.0,0.2646
479.0,0.2634
480.0,0.2643
481.0,0.2699
482.0,0.2722
483.0,0.2698
484.0,0.265
485.0,0.2531
486.0,0.222
487.0,0.2333
488.0,0.256
489.0,0.2566
490.0,0.2704
491.0,0.2662
492.0,0.2516
493.0,0.26
494.0,0.2628
495.0,0.2653
496.0,0.267
497.0,0.271
498.0,0.2582
499.0,0.2612
500.0,0.253
501.0,0.2477
502.0,0.2431
503.0,0.2518
504.0,0.2422
505.0,0.2535
506.0,0.2617
507.0,0.2493
508.0,0.2426
509.0,0.2503
510.0,0.2498
511.0,0.2573
512.0,0.2605
513.0,0.2466
514.0,0.2452
515.0,0.2428
516.0,0.242
517.0,0.2152
518.0,0.2261
519.0,0.2371
520.0,0.2456
521.0,0.2478
522.0,0.2477
523.0,0.243
524.0,0.2509
525.0,0.2529
526.0,0.2412
527.0,0.2266
528.0,0.239
529.0,0.2514
530.0,0.2474
531.0,0.2507
532.0,0.2419
533.0,0.2348
534.0,0.242
535.0,0.2478
536.0,0.2504
537.0,0.2409
538.0,0.2454
539.0,0.2433
540.0,0.233
541.0,0.2334
542.0,0.2402
543.0,0.2384
544.0,0.2416
545.0,0.2411
546.0,0.2414
547.0,0.242
548.0,0.2395
549.0,0.2405
550.0,0.2434
551.0,0.2406
552.0,0.2422
553.0,0.2377
554.0,0.2433
555.0,0.2436
556.0,0.2402
557.0,0.2324
558.0,0.2301
559.0,0.2252
560.0,0.2276
561.0,0.2299
562.0,0.2276
563.0,0.233
564.0,0.226
565.0,0.2234
566.0,0.2196
567.0,0.223
568.0,0.2192
569.0,0.2106
570.0,0.2109
571.0,0.2104
572.0,0.2132
573.0,0.215
574.0,0.2138
575.0,0.2089
576.0,0.2071
577.0,0.2097
578.0,0.2075
579.0,0.21
580.0,0.2166
581.0,0.2197
582.0,0.2257
583.0,0.2277
584.0,0.2306
585.0,0.2256
586.0,0.2211
587.0,0.2248
588.0,0.2151
589.0,0.1826
590.0,0.1914
591.0,0.2075
592.0,0.202
593.0,0.2087
594.0,0.2059
595.0,0.1973
596.0,0.2121
597.0,0.2078
598.0,0.2094
599.0,0.2104
600.0,0.2124
601.0,0.212
602.0,0.2109
603.0,0.2151
604.0,0.219
605.0,0.2184
606.0,0.2182
607.0,0.2212
608.0,0.2196
609.0,0.2206
610.0,0.2198
611.0,0.2215
612.0,0.2214
613.0,0.2191
614.0,0.2168
615.0,0.2222
616.0,0.2154
617.0,0.2154
618.0,0.2242
619.0,0.2222
620.0,0.2236
621.0,0.2233
622.0,0.2204
623.0,0.2168
624.0,0.2135
625.0,0.2128
626.0,0.2157
627.0,0.2163
628.0,0.1817
629.0,0.2039
630.0,0.1984
631.0,0.2099
632.0,0.2088
633.0,0.218
634.0,0.2182
635.0,0.2228
636.0,0.2212
637.0,0.2259
638.0,0.2298
639.0,0.2281
640.0,0.227
641.0,0.2277
642.0,0.2276
643.0,0.2308
644.0,0.231
645.0,0.2308
646.0,0.223
647.0,0.2143
648.0,0.2155
649.0,0.21
650.0,0.2188
651.0,0.2295
652.0,0.213
653.0,0.2271
654.0,0.225
655.0,0.2131
656.0,0.1914
657.0,0.1971
658.0,0.2234
659.0,0.226
660.0,0.2277
661.0,0.2299
662.0,0.2293
663.0,0.2252
664.0,0.2297
665.0,0.2315
666.0,0.2322
667.0,0.2328
668.0,0.2338
669.0,0.238
670.0,0.2373
671.0,0.2378
672.0,0.236
673.0,0.24
674.0,0.2395
675.0,0.2377
676.0,0.2397
677.0,0.2377
678.0,0.2386
679.0,0.2351
680.0,0.2372
681.0,0.2357
682.0,0.2355
683.0,0.2352
684.0,0.2339
685.0,0.2364
686.0,0.2345
687.0,0.07865
688.0,0.1203
689.0,0.1218
690.0,0.1396
691.0,0.162
692.0,0.1813
693.0,0.1796
694.0,0.1816
695.0,0.2
696.0,0.2012
697.0,0.2256
698.0,0.2218
699.0,0.2079
700.0,0.2049
701.0,0.1988
702.0,0.2037
703.0,0.2056
704.0,0.2174
705.0,0.2174
706.0,0.2191
707.0,0.2202
708.0,0.2203
709.0,0.2245
710.0,0.2223
711.0,0.2235
712.0,0.2247
713.0,0.2206
714.0,0.2221
715.0,0.2113
716.0,0.2106
717.0,0.1526
718.0,0.1388
719.0,0.1249
720.0,0.1274
721.0,0.1565
722.0,0.1971
723.0,0.175
724.0,0.1466
725.0,0.1413
726.0,0.1485
727.0,0.158
728.0,0.1398
729.0,0.155
730.0,0.1605
731.0,0.1523
732.0,0.1741
733.0,0.1937
734.0,0.202
735.0,0.1958
736.0,0.1946
737.0,0.1958
738.0,0.2077
739.0,0.2041
740.0,0.2119
741.0,0.2113
742.0,0.2133
743.0,0.2192
744.0,0.2197
745.0,0.2207
746.0,0.2217
747.0,0.2225
748.0,0.2221
749.0,0.2197
750.0,0.2196
751.0,0.2175
752.0,0.2186
753.0,0.2198
754.0,0.2203
755.0,0.219
756.0,0.219
757.0,0.2193
758.0,0.2164
759.0,0.2056
760.0,0.003559
761.0,0.001505
762.0,0.03566
763.0,0.007342
764.0,0.0175
765.0,0.03547
766.0,0.06443
767.0,0.1139
768.0,0.1678
769.0,0.1809
770.0,0.1986
771.0,0.2056
772.0,0.2077
773.0,0.2096
774.0,0.209
775.0,0.2077
776.0,0.2103
777.0,0.2076
778.0,0.2063
779.0,0.2065
780.0,0.2055
781.0,0.2058
782.0,0.2072
783.0,0.2037
784.0,0.2049
785.0,0.2029
786.0,0.2048
787.0,0.1965
788.0,0.192
789.0,0.1921
790.0,0.1813
791.0,0.1887
792.0,0.1883
793.0,0.1847
794.0,0.1936
795.0,0.1952
796.0,0.1808
797.0,0.18
798.0,0.1939
799.0,0.1912
800.0,0.186
801.0,0.1832
802.0,0.1823
803.0,0.1797
804.0,0.1811
805.0,0.1831
806.0,0.1927
807.0,0.1895
808.0,0.1898
809.0,0.1828
810.0,0.1796
811.0,0.1768
812.0,0.1645
813.0,0.1599
814.0,0.1277
815.0,0.1283
816.0,0.117
817.0,0.1194
818.0,0.112
819.0,0.1359
820.0,0.1247
821.0,0.1637
822.0,0.156
823.0,0.08109
824.0,0.1442
825.0,0.1614
826.0,0.1488
827.0,0.1633
828.0,0.1209
829.0,0.1493
830.0,0.1465
831.0,0.1466
832.0,0.1389
833.0,0.1554
834.0,0.1454
835.0,0.1733
836.0,0.1556
837.0,0.1735
838.0,0.1634
839.0,0.1706
840.0,0.1756
841.0,0.171
842.0,0.1746
843.0,0.1782
844.0,0.1739
845.0,0.1821
846.0,0.182
847.0,0.1796
848.0,0.177
849.0,0.1719
850.0,0.1649
851.0,0.1729
852.0,0.1725
853.0,0.1673
854.0,0.1434
855.0,0.1591
856.0,0.1732
857.0,0.1781
858.0,0.1763
859.0,0.1772
860.0,0.178
861.0,0.1769
862.0,0.18
863.0,0.1842
864.0,0.1751
865.0,0.1737
866.0,0.1562
867.0,0.1631
868.0,0.1775
869.0,0.1739
870.0,0.1789
871.0,0.1765
872.0,0.1759
873.0,0.1756
874.0,0.1735
875.0,0.17
876.0,0.1716
877.0,0.1735
878.0,0.1751
879.0,0.1724
880.0,0.1688
881.0,0.1655
882.0,0.1687
883.0,0.1701
884.0,0.169
885.0,0.1702
886.0,0.1596
887.0,0.1634
888.0,0.1647
889.0,0.1687
890.0,0.1644
891.0,0.1656
892.0,0.1572
893.0,0.1493
894.0,0.1366
895.0,0.1203
896.0,0.1113
897.0,0.08675
898.0,0.09829
899.0,0.06547
900.0,0.1065
901.0,0.0687
902.0,0.09206
903.0,0.08851
904.0,0.1348
905.0,0.1276
906.0,0.1165
907.0,0.07914
908.0,0.08452
909.0,0.09627
910.0,0.0753
911.0,0.08939
912.0,0.09237
913.0,0.0759
914.0,0.07757
915.0,0.08249
916.0,0.06893
917.0,0.09713
918.0,0.06957
919.0,0.1026
920.0,0.1132
921.0,0.1162
922.0,0.09645
923.0,0.1135
924.0,0.09571
925.0,0.09429
926.0,0.0935
927.0,0.1117
928.0,0.0611
929.0,0.05093
930.0,0.03192
931.0,0.02947
932.0,0.01516
933.0,0.0103
934.0,0.002591
935.0,0.01189
936.0,0.005032
937.0,0.005128
938.0,0.007015
939.0,0.02832
940.0,0.03953
941.0,0.02351
942.0,0.02982
943.0,0.01534
944.0,0.02068
945.0,0.02567
946.0,0.007825
947.0,0.02423
948.0,0.01739
949.0,0.03901
950.0,0.004388
951.0,0.03836
952.0,0.01409
953.0,0.02239
954.0,0.03264
955.0,0.0234
956.0,0.03055
957.0,0.01403
958.0,0.04791
959.0,0.03006
960.0,0.03394
961.0,0.0445
962.0,0.04213
963.0,0.05476
964.0,0.04855
965.0,0.0535
966.0,0.05381
967.0,0.05232
968.0,0.09827
969.0,0.0971
970.0,0.08751
971.0,0.113
972.0,0.1047
973.0,0.07847
974.0,0.07425
975.0,0.08007
976.0,0.06877
977.0,0.09466
978.0,0.08301
979.0,0.08998
980.0,0.08336
981.0,0.1126
982.0,0.1031
983.0,0.0965
984.0,0.1227
985.0,0.102
986.0,0.1294
987.0,0.1232
988.0,0.1235
989.0,0.132
990.0,0.1223
991.0,0.1319
992.0,0.1332
993.0,0.1261
994.0,0.1337
995.0,0.1344
996.0,0.1329
997.0,0.1335
998.0,0.1326
999.0,0.1323
1000.0,0.1302
1001.0,0.1332
1002.0,0.1242
1003.0,0.1306
1004.0,0.1259
1005.0,0.1232
1006.0,0.1272
1007.0,0.1303
1008.0,0.1287
1009.0,0.127
1010.0,0.1259
1011.0,0.1297
1012.0,0.1277
1013.0,0.1298
1014.0,0.1288
1015.0,0.1279
1016.0,0.1272
1017.0,0.1272
1018.0,0.1274
1019.0,0.1227
1020.0,0.1265
1021.0,0.1267
1022.0,0.1249
1023.0,0.1262
1024.0,0.1224
1025.0,0.1267
1026.0,0.1256
1027.0,0.1255
1028.0,0.1251
1029.0,0.1233
1030.0,0.1249
1031.0,0.1241
1032.0,0.124
1033.0,0.1221
1034.0,0.1222
1035.0,0.1226
1036.0,0.1229
1037.0,0.121
1038.0,0.1215
1039.0,0.1213
1040.0,0.1207
1041.0,0.121
1042.0,0.1202
1043.0,0.1197
1044.0,0.1199
1045.0,0.1182
1046.0,0.1168
1047.0,0.1176
1048.0,0.1181
1049.0,0.1175
1050.0,0.1168
1051.0,0.1164
1052.0,0.1157
1053.0,0.1145
1054.0,0.1145
1055.0,0.1142
1056.0,0.1134
1057.0,0.1128
1058.0,0.1097
1059.0,0.1095
1060.0,0.1092
1061.0,0.1088
1062.0,0.1091
1063.0,0.1077
1064.0,0.1091
1065.0,0.1075
1066.0,0.106
1067.0,0.1072
1068.0,0.1043
1069.0,0.1016
1070.0,0.1046
1071.0,0.1079
1072.0,0.1054
1073.0,0.1041
1074.0,0.1088
1075.0,0.09923
1076.0,0.1085
1077.0,0.1043
1078.0,0.1009
1079.0,0.1077
1080.0,0.1025
1081.0,0.09692
1082.0,0.1023
1083.0,0.1039
1084.0,0.09577
1085.0,0.103
1086.0,0.08832
1087.0,0.09488
1088.0,0.1031
1089.0,0.09494
1090.0,0.09113
1091.0,0.1015
1092.0,0.1019
1093.0,0.07539
1094.0,0.09181
1095.0,0.07841
1096.0,0.07239
1097.0,0.0996
1098.0,0.06935
1099.0,0.07367
1100.0,0.06482
1101.0,0.0674
1102.0,0.06133
1103.0,0.05862
1104.0,0.05918
1105.0,0.07084
1106.0,0.03965
1107.0,0.0649
1108.0,0.04619
1109.0,0.04694
1110.0,0.06151
1111.0,0.02994
1112.0,0.04702
1113.0,0.02
1114.0,0.02235
1115.0,0.01747
1116.0,0.01001
1117.0,0.001475
1118.0,0.01142
1119.0,0.003216
1120.0,0.003641
1121.0,0.005728
1122.0,0.001096
1123.0,0.003329
1124.0,0.002783
1125.0,0.004209
1126.0,0.0004112
1127.0,0.00485
1128.0,0.001467
1129.0,0.00163
1130.0,0.001043
1131.0,0.01529
1132.0,0.01054
1133.0,0.003791
1134.0,0.0003109
1135.0,0.0001517
1136.0,0.002413
1137.0,0.01388
1138.0,0.008841
1139.0,0.02225
1140.0,0.01491
1141.0,0.008557
1142.0,0.01118
1143.0,0.02032
1144.0,0.003726
1145.0,0.00355
1146.0,0.003815
1147.0,0.0004403
1148.0,0.01652
1149.0,0.01089
1150.0,0.004909
1151.0,0.008837
1152.0,0.01355
1153.0,0.01564
1154.0,0.003985
1155.0,0.02321
1156.0,0.01885
1157.0,0.0266
1158.0,0.02617
1159.0,0.02983
1160.0,0.02485
1161.0,0.03713
1162.0,0.03641
1163.0,0.06334
1164.0,0.04939
1165.0,0.0419
1166.0,0.04589
1167.0,0.05227
1168.0,0.05222
1169.0,0.05444
1170.0,0.06376
1171.0,0.06217
1172.0,0.06679
1173.0,0.0637
1174.0,0.03616
1175.0,0.06568
1176.0,0.07918
1177.0,0.07113
1178.0,0.04582
1179.0,0.07959
1180.0,0.0636
1181.0,0.06581
1182.0,0.03631
1183.0,0.06619
1184.0,0.05873
1185.0,0.05376
1186.0,0.0738
1187.0,0.06686
1188.0,0.03497
1189.0,0.06189
1190.0,0.07317
1191.0,0.06245
1192.0,0.07491
1193.0,0.06929
1194.0,0.0731
1195.0,0.06438
1196.0,0.05961
1197.0,0.07468
1198.0,0.06694
1199.0,0.04757
1200.0,0.06863
1201.0,0.0624
1202.0,0.06572
1203.0,0.06248
1204.0,0.05132
1205.0,0.06954
1206.0,0.08133
1207.0,0.06395
1208.0,0.06584
1209.0,0.06731
1210.0,0.07249
1211.0,0.066
1212.0,0.05918
1213.0,0.07558
1214.0,0.06253
1215.0,0.06111
1216.0,0.07629
1217.0,0.0725
1218.0,0.07547
1219.0,0.0732
1220.0,0.07575
1221.0,0.07811
1222.0,0.07514
1223.0,0.07353
1224.0,0.07069
1225.0,0.07691
1226.0,0.07923
1227.0,0.06748
1228.0,0.08054
1229.0,0.0793
1230.0,0.0769
1231.0,0.08239
1232.0,0.08177
1233.0,0.07451
1234.0,0.08347
1235.0,0.08213
1236.0,0.08337
1237.0,0.08057
1238.0,0.08312
1239.0,0.082
1240.0,0.08259
1241.0,0.08086
1242.0,0.08187
1243.0,0.08129
1244.0,0.08143
1245.0,0.08203
1246.0,0.08161
1247.0,0.0809
1248.0,0.08015
1249.0,0.08102
1250.0,0.0801
1251.0,0.07821
1252.0,0.07932
1253.0,0.07671
1254.0,0.07451
1255.0,0.07873
1256.0,0.07292
1257.0,0.0718
1258.0,0.07598
1259.0,0.06784
1260.0,0.06884
1261.0,0.05873
1262.0,0.0539
1263.0,0.05386
1264.0,0.04332
1265.0,0.05361
1266.0,0.04769
1267.0,0.05123
1268.0,0.04439
1269.0,0.01074
1270.0,0.04996
1271.0,0.05948
1272.0,0.06015
1273.0,0.05882
1274.0,0.06
1275.0,0.06194
1276.0,0.06382
1277.0,0.06603
1278.0,0.0697
1279.0,0.0692
1280.0,0.0683
1281.0,0.06642
1282.0,0.06603
1283.0,0.07068
1284.0,0.07204
1285.0,0.07289
1286.0,0.07496
1287.0,0.07177
1288.0,0.0725
1289.0,0.06618
1290.0,0.07197
1291.0,0.07374
1292.0,0.06246
1293.0,0.07079
1294.0,0.07004
1295.0,0.06706
1296.0,0.06023
1297.0,0.05439
1298.0,0.06444
1299.0,0.0714
1300.0,0.05099
1301.0,0.05379
1302.0,0.06467
1303.0,0.05094
1304.0,0.03577
1305.0,0.06279
1306.0,0.06145
1307.0,0.03919
1308.0,0.05234
1309.0,0.05919
1310.0,0.03746
1311.0,0.04823
1312.0,0.04633
1313.0,0.04269
1314.0,0.0351
1315.0,0.03331
1316.0,0.04593
1317.0,0.04205
1318.0,0.0493
1319.0,0.02942
1320.0,0.02979
1321.0,0.03825
1322.0,0.03676
1323.0,0.02084
1324.0,0.02934
1325.0,0.04359
1326.0,0.0332
1327.0,0.03026
1328.0,0.02342
1329.0,0.01236
1330.0,0.01922
1331.0,0.006981
1332.0,0.008088
1333.0,0.01213
1334.0,0.01389
1335.0,0.01974
1336.0,0.01262
1337.0,0.01098
1338.0,0.01145
1339.0,0.01177
1340.0,0.01285
1341.0,0.009142
1342.0,0.01017
1343.0,0.003395
1344.0,0.002314
1345.0,0.002836
1346.0,0.0004773
1347.0,0.0003787
1348.0,6.351e-06
1349.0,2.623e-05
1350.0,2.956e-05
1351.0,4.006e-06
1352.0,9.575e-07
1353.0,4.86e-08
1354.0,1.677e-07
1355.0,1.344e-09
1356.0,2.354e-08
1357.0,3.577e-08
1358.0,1.578e-09
1359.0,1.988e-10
1360.0,7.186e-10
1361.0,8.037e-13
1362.0,2.199e-15
1363.0,9.661e-10
1364.0,3.989e-10
1365.0,7.676e-16
1366.0,4.187e-09
1367.0,1.709e-09
1368.0,5.927e-18
1369.0,1.47e-10
1370.0,7.238e-11
1371.0,4.103e-12
1372.0,9.269e-10
1373.0,1.868e-08
1374.0,8.667e-08
1375.0,1.571e-07
1376.0,1.417e-07
1377.0,6.465e-08
1378.0,6.308e-07
1379.0,2.706e-08
1380.0,3.867e-08
1381.0,1.007e-09
1382.0,8.124e-10
1383.0,1.215e-11
1384.0,1.592e-10
1385.0,7.615e-10
1386.0,7.163e-10
1387.0,8.663e-08
1388.0,1.705e-09
1389.0,2.929e-07
1390.0,2.512e-07
1391.0,1.671e-07
1392.0,1.084e-08
1393.0,5.755e-08
1394.0,2.955e-08
1395.0,2.165e-10
1396.0,1.046e-12
1397.0,2.262e-08
1398.0,6.685e-07
1399.0,4.231e-07
1400.0,4.475e-13
1401.0,1.856e-12
1402.0,1.341e-06
1403.0,1.549e-06
1404.0,4.578e-07
1405.0,1.025e-10
1406.0,1.158e-06
1407.0,1.124e-07
1408.0,9.446e-07
1409.0,3.124e-07
1410.0,2.544e-07
1411.0,1.353e-06
1412.0,2.021e-06
