interpolation:linear
wavelength,value
280.0,2.818e-21
280.5,8.845000000000001e-20
281.0,4.669e-19
281.5,3.355e-19
282.0,1.014e-18
282.5,2.691e-18
283.0,8.753e-18
283.5,1.436e-17
284.0,2.352e-16
284.5,6.798e-16
285.0,1.543e-15
285.5,7.481e-15
286.0,2.99e-14
286.5,1.318e-13
287.0,3.729e-13
287.5,1.41e-12
288.0,3.761e-12
288.5,1.249e-11
289.0,3.543e-11
289.5,1.121e-10
290.0,3.202e-10
290.5,6.659e-10
291.0,1.456e-09
291.5,4.254e-09
292.0,9.179e-09
292.5,1.38e-08
293.0,3.231e-08
293.5,8.856e-08
294.0,1.507e-07
294.5,1.95e-07
295.0,3.589e-07
295.5,9.369e-07
296.0,1.877e-06
296.5,2.739e-06
297.0,3.85e-06
297.5,1.099e-05
298.0,1.837e-05
298.5,1.94e-05
299.0,4.5e-05
299.5,8.208e-05
300.0,9.567e-05
300.5,0.0001477
301.0,0.0003
301.5,0.0005425
302.0,0.0005014
302.5,0.0009909
303.0,0.001806
303.5,0.002296
304.0,0.002172
304.5,0.003295
305.0,0.005104
305.5,0.005922
306.0,0.005761
306.5,0.007231
307.0,0.01091
307.5,0.01472
308.0,0.01559
308.5,0.01854
309.0,0.01829
309.5,0.02109
310.0,0.02126
310.5,0.0345
311.0,0.04343
311.5,0.04198
312.0,0.04223
312.5,0.05158
313.0,0.05606
313.5,0.05436
314.0,0.06826
314.5,0.06087
315.0,0.08008
315.5,0.06683
316.0,0.05862
316.5,0.08449
317.0,0.1049
317.5,0.1091
318.0,0.08532
318.5,0.1064
319.0,0.1265
319.5,0.1028
320.0,0.1242
320.5,0.1561
321.0,0.1395
321.5,0.1338
322.0,0.1421
322.5,0.1237
323.0,0.1235
323.5,0.1521
324.0,0.1776
324.5,0.1802
325.0,0.1556
325.5,0.2004
326.0,0.2452
326.5,0.2458
327.0,0.245
327.5,0.2366
328.0,0.2105
328.5,0.2215
329.0,0.2655
329.5,0.3016
330.0,0.3042
330.5,0.2434
331.0,0.248
331.5,0.2522
332.0,0.2727
332.5,0.2699
333.0,0.2691
333.5,0.2435
334.0,0.2495
334.5,0.2881
335.0,0.2709
335.5,0.3164
336.0,0.219
336.5,0.2565
337.0,0.2104
337.5,0.2618
338.0,0.2557
338.5,0.2953
339.0,0.2924
339.5,0.2813
340.0,0.3306
340.5,0.2981
341.0,0.2908
341.5,0.2671
342.0,0.3193
342.5,0.2988
343.0,0.3287
343.5,0.3096
344.0,0.2288
344.5,0.2312
345.0,0.3061
345.5,0.3126
346.0,0.2658
346.5,0.301
347.0,0.3232
347.5,0.2614
348.0,0.2981
348.5,0.2981
349.0,0.2766
349.5,0.274
350.0,0.339
350.5,0.3576
351.0,0.3195
351.5,0.3106
352.0,0.3337
352.5,0.2605
353.0,0.3283
353.5,0.3511
354.0,0.3646
354.5,0.3698
355.0,0.3687
355.5,0.3332
356.0,0.3487
356.5,0.2978
357.0,0.2461
357.5,0.3014
358.0,0.2389
358.5,0.2042
359.0,0.2857
359.5,0.3641
360.0,0.3861
360.5,0.3087
361.0,0.2815
361.5,0.3243
362.0,0.2805
362.5,0.3884
363.0,0.349
363.5,0.3216
364.0,0.3935
364.5,0.3364
365.0,0.3427
365.5,0.4303
366.0,0.4561
366.5,0.4287
367.0,0.4176
367.5,0.4335
368.0,0.3795
368.5,0.383
369.0,0.4138
369.5,0.4412
370.0,0.4704
370.5,0.3652
371.0,0.3904
371.5,0.4885
372.0,0.3243
372.5,0.389
373.0,0.3958
373.5,0.2576
374.0,0.3745
374.5,0.3102
375.0,0.3016
375.5,0.4505
376.0,0.3735
376.5,0.3871
377.0,0.41
377.5,0.4799
378.0,0.5203
378.5,0.4919
379.0,0.406
379.5,0.3709
380.0,0.3857
380.5,0.4674
381.0,0.4685
381.5,0.3716
382.0,0.3301
382.5,0.2815
383.0,0.2607
383.5,0.2512
384.0,0.2772
384.5,0.4078
385.0,0.4045
385.5,0.3769
386.0,0.3229
386.5,0.4243
387.0,0.3526
387.5,0.3962
388.0,0.3659
388.5,0.3618
389.0,0.3907
389.5,0.4733
390.0,0.4752
390.5,0.4374
391.0,0.515
391.5,0.5254
392.0,0.4427
392.5,0.3964
393.0,0.2207
393.5,0.1605
394.0,0.3266
394.5,0.4154
395.0,0.5069
395.5,0.5151
396.0,0.4467
396.5,0.2612
397.0,0.1961
397.5,0.3989
398.0,0.5587
398.5,0.5776
399.0,0.6257
399.5,0.6239
400.0,0.6479
401.0,0.6567
402.0,0.6932
403.0,0.6589
404.0,0.649
405.0,0.6492
406.0,0.639
407.0,0.629
408.0,0.6538
409.0,0.7
410.0,0.612
411.0,0.6632
412.0,0.7127
413.0,0.6952
414.0,0.704
415.0,0.7062
416.0,0.7189
417.0,0.7015
418.0,0.6888
419.0,0.6981
420.0,0.6952
421.0,0.7276
422.0,0.6918
423.0,0.676
424.0,0.7152
425.0,0.7141
426.0,0.696
427.0,0.6832
428.0,0.6657
429.0,0.6308
430.0,0.5523
431.0,0.5475
432.0,0.7071
433.0,0.7113
434.0,0.6606
435.0,0.69
436.0,0.7778
437.0,0.7677
438.0,0.6993
439.0,0.7232
440.0,0.7464
441.0,0.7737
442.0,0.83
443.0,0.8084
444.0,0.8262
445.0,0.8084
446.0,0.7719
447.0,0.8348
448.0,0.8477
449.0,0.8515
450.0,0.8755
451.0,0.9082
452.0,0.8752
453.0,0.8233
454.0,0.8598
455.0,0.8652
456.0,0.8859
457.0,0.9007
458.0,0.8699
459.0,0.8656
460.0,0.8679
461.0,0.888
462.0,0.8951
463.0,0.8889
464.0,0.8746
465.0,0.8638
466.0,0.8724
467.0,0.8564
468.0,0.8666
469.0,0.8712
470.0,0.8434
471.0,0.8424
472.0,0.8877
473.0,0.8762
474.0,0.8773
475.0,0.8847
476.0,0.858
477.0,0.8603
478.0,0.8843
479.0,0.8791
480.0,0.8809
481.0,0.8976
482.0,0.9025
483.0,0.8919
484.0,0.8738
485.0,0.8326
486.0,0.728
487.0,0.7632
488.0,0.8373
489.0,0.8398
490.0,0.8837
491.0,0.8686
492.0,0.8203
493.0,0.8472
494.0,0.8557
495.0,0.863
496.0,0.8684
497.0,0.8819
498.0,0.8406
499.0,0.8513
500.0,0.8264
501.0,0.8111
502.0,0.7994
503.0,0.8317
504.0,0.8097
505.0,0.8394
506.0,0.8665
507.0,0.8246
508.0,0.7992
509.0,0.8218
510.0,0.8177
511.0,0.8398
512.0,0.849
513.0,0.8036
514.0,0.7982
515.0,0.7903
516.0,0.7883
517.0,0.7005
518.0,0.7364
519.0,0.7724
520.0,0.8005
521.0,0.8081
522.0,0.8087
523.0,0.7941
524.0,0.8224
525.0,0.8319
526.0,0.7946
527.0,0.7486
528.0,0.7916
529.0,0.8343
530.0,0.8222
531.0,0.8343
532.0,0.8056
533.0,0.782
534.0,0.8052
535.0,0.8229
536.0,0.8306
537.0,0.7979
538.0,0.8121
539.0,0.8052
540.0,0.772
541.0,0.7768
542.0,0.801
543.0,0.7928
544.0,0.8063
545.0,0.8039
546.0,0.8072
547.0,0.807
548.0,0.7975
549.0,0.8
550.0,0.8095
551.0,0.7997
552.0,0.8053
553.0,0.7908
554.0,0.8097
555.0,0.8113
556.0,0.8007
557.0,0.7757
558.0,0.7698
559.0,0.7552
560.0,0.7646
561.0,0.7744
562.0,0.7686
563.0,0.7894
564.0,0.7677
565.0,0.761
566.0,0.7497
567.0,0.7637
568.0,0.7564
569.0,0.7375
570.0,0.7374
571.0,0.7333
572.0,0.7502
573.0,0.7581
574.0,0.7556
575.0,0.7413
576.0,0.7345
577.0,0.7426
578.0,0.7317
579.0,0.7351
580.0,0.7497
581.0,0.7541
582.0,0.7688
583.0,0.7711
584.0,0.778
585.0,0.7592
586.0,0.7436
587.0,0.7596
588.0,0.7399
589.0,0.6533
590.0,0.6833
591.0,0.7245
592.0,0.7145
593.0,0.7261
594.0,0.7207
595.0,0.7021
596.0,0.7316
597.0,0.7232
598.0,0.7219
599.0,0.7228
600.0,0.7244
601.0,0.7188
602.0,0.714
603.0,0.726
604.0,0.7381
605.0,0.7344
606.0,0.7315
607.0,0.739
608.0,0.731
609.0,0.7325
610.0,0.7274
611.0,0.7314
612.0,0.7293
613.0,0.7203
614.0,0.7106
615.0,0.7262
616.0,0.7025
617.0,0.7011
618.0,0.7282
619.0,0.7209
620.0,0.7254
621.0,0.726
622.0,0.7173
623.0,0.7063
624.0,0.6943
625.0,0.6928
626.0,0.703
627.0,0.7104
628.0,0.6583
629.0,0.6918
630.0,0.6757
631.0,0.6927
632.0,0.6847
633.0,0.7063
634.0,0.7
635.0,0.7112
636.0,0.7021
637.0,0.7138
638.0,0.7211
639.0,0.7132
640.0,0.7066
641.0,0.7063
642.0,0.7033
643.0,0.7128
644.0,0.7107
645.0,0.7117
646.0,0.6945
647.0,0.6848
648.0,0.6854
649.0,0.672
650.0,0.6771
651.0,0.7068
652.0,0.6754
653.0,0.6975
654.0,0.6899
655.0,0.6632
656.0,0.5885
657.0,0.6044
658.0,0.6779
659.0,0.6831
660.0,0.686
661.0,0.6909
662.0,0.6919
663.0,0.6784
664.0,0.687
665.0,0.6879
666.0,0.6886
667.0,0.6882
668.0,0.6887
669.0,0.6995
670.0,0.6965
671.0,0.6965
672.0,0.6906
673.0,0.7011
674.0,0.6985
675.0,0.6923
676.0,0.6971
677.0,0.6902
678.0,0.6923
679.0,0.6812
680.0,0.6866
681.0,0.6821
682.0,0.6813
683.0,0.68
684.0,0.6766
685.0,0.6825
686.0,0.6783
687.0,0.4279
688.0,0.5119
689.0,0.5141
690.0,0.5429
691.0,0.5755
692.0,0.5997
693.0,0.5945
694.0,0.5897
695.0,0.6169
696.0,0.6178
697.0,0.659
698.0,0.6487
699.0,0.631
700.0,0.6233
701.0,0.6162
702.0,0.6213
703.0,0.6225
704.0,0.6438
705.0,0.6448
706.0,0.6447
707.0,0.6454
708.0,0.6467
709.0,0.6485
710.0,0.6481
711.0,0.6475
712.0,0.646
713.0,0.6391
714.0,0.6416
715.0,0.6204
716.0,0.6206
717.0,0.53
718.0,0.4857
719.0,0.4442
720.0,0.4645
721.0,0.5178
722.0,0.5977
723.0,0.5537
724.0,0.4956
725.0,0.4866
726.0,0.5098
727.0,0.5191
728.0,0.485
729.0,0.5061
730.0,0.5353
731.0,0.5113
732.0,0.55
733.0,0.5852
734.0,0.5999
735.0,0.587
736.0,0.5863
737.0,0.5885
738.0,0.5997
739.0,0.5878
740.0,0.6038
741.0,0.5982
742.0,0.5991
743.0,0.6145
744.0,0.613
745.0,0.6133
746.0,0.6161
747.0,0.6175
748.0,0.6162
749.0,0.6092
750.0,0.6089
751.0,0.6027
752.0,0.6053
753.0,0.6084
754.0,0.6098
755.0,0.6063
756.0,0.6061
757.0,0.6069
758.0,0.5994
759.0,0.5859
760.0,0.07738
761.0,0.03732
762.0,0.2754
763.0,0.1251
764.0,0.1988
765.0,0.2753
766.0,0.3493
767.0,0.4525
768.0,0.5321
769.0,0.5455
770.0,0.5666
771.0,0.5723
772.0,0.5738
773.0,0.5779
774.0,0.5752
775.0,0.5709
776.0,0.5779
777.0,0.5703
778.0,0.5668
779.0,0.5673
780.0,0.5641
781.0,0.5647
782.0,0.5683
783.0,0.5584
784.0,0.5611
785.0,0.5569
786.0,0.5629
787.0,0.5521
788.0,0.5447
789.0,0.5444
790.0,0.5285
791.0,0.5345
792.0,0.5307
793.0,0.522
794.0,0.5324
795.0,0.541
796.0,0.5224
797.0,0.523
798.0,0.5402
799.0,0.5363
800.0,0.5265
801.0,0.5245
802.0,0.523
803.0,0.5187
804.0,0.5197
805.0,0.5186
806.0,0.5341
807.0,0.5275
808.0,0.528
809.0,0.5174
810.0,0.5127
811.0,0.5122
812.0,0.4963
813.0,0.4852
814.0,0.4226
815.0,0.4202
816.0,0.3906
817.0,0.3982
818.0,0.3823
819.0,0.4311
820.0,0.4046
821.0,0.4782
822.0,0.4636
823.0,0.3071
824.0,0.4482
825.0,0.4697
826.0,0.4503
827.0,0.4769
828.0,0.3994
829.0,0.4479
830.0,0.4415
831.0,0.4432
832.0,0.4287
833.0,0.4585
834.0,0.4407
835.0,0.4877
836.0,0.4645
837.0,0.4892
838.0,0.4728
839.0,0.4821
840.0,0.4929
841.0,0.4854
842.0,0.4873
843.0,0.4878
844.0,0.4806
845.0,0.4974
846.0,0.4953
847.0,0.4864
848.0,0.483
849.0,0.4693
850.0,0.4496
851.0,0.4757
852.0,0.4725
853.0,0.4551
854.0,0.3927
855.0,0.4318
856.0,0.4717
857.0,0.4825
858.0,0.4788
859.0,0.4794
860.0,0.4804
861.0,0.4777
862.0,0.4853
863.0,0.4968
864.0,0.4719
865.0,0.4678
866.0,0.4207
867.0,0.439
868.0,0.4777
869.0,0.4678
870.0,0.4812
871.0,0.4746
872.0,0.473
873.0,0.472
874.0,0.4664
875.0,0.457
876.0,0.4617
877.0,0.4664
878.0,0.4714
879.0,0.4642
880.0,0.4542
881.0,0.4472
882.0,0.4568
883.0,0.4584
884.0,0.4563
885.0,0.4597
886.0,0.4374
887.0,0.4426
888.0,0.4488
889.0,0.4545
890.0,0.4499
891.0,0.4496
892.0,0.4356
893.0,0.4209
894.0,0.4039
895.0,0.3789
896.0,0.3559
897.0,0.3023
898.0,0.3317
899.0,0.2482
900.0,0.3419
901.0,0.2602
902.0,0.3109
903.0,0.3121
904.0,0.4008
905.0,0.3859
906.0,0.3602
907.0,0.2873
908.0,0.2938
909.0,0.3207
910.0,0.2791
911.0,0.3005
912.0,0.3149
913.0,0.2831
914.0,0.2815
915.0,0.3052
916.0,0.2574
917.0,0.3313
918.0,0.2636
919.0,0.3387
920.0,0.3449
921.0,0.3589
922.0,0.3176
923.0,0.347
924.0,0.325
925.0,0.318
926.0,0.3212
927.0,0.3628
928.0,0.2567
929.0,0.2318
930.0,0.178
931.0,0.1692
932.0,0.1175
933.0,0.09342
934.0,0.04683
935.0,0.09733
936.0,0.05794
937.0,0.05846
938.0,0.07297
939.0,0.1638
940.0,0.2001
941.0,0.147
942.0,0.1726
943.0,0.1103
944.0,0.1192
945.0,0.1524
946.0,0.07325
947.0,0.1519
948.0,0.1111
949.0,0.2076
950.0,0.05136
951.0,0.2052
952.0,0.1046
953.0,0.1388
954.0,0.1744
955.0,0.1409
956.0,0.1397
957.0,0.1043
958.0,0.2033
959.0,0.1567
960.0,0.1757
961.0,0.201
962.0,0.1898
963.0,0.2221
964.0,0.2024
965.0,0.2214
966.0,0.2207
967.0,0.2195
968.0,0.3063
969.0,0.3186
970.0,0.2912
971.0,0.3386
972.0,0.3228
973.0,0.2757
974.0,0.261
975.0,0.273
976.0,0.2563
977.0,0.2975
978.0,0.2802
979.0,0.2951
980.0,0.2765
981.0,0.3368
982.0,0.3201
983.0,0.3062
984.0,0.3493
985.0,0.3188
986.0,0.3568
987.0,0.3482
988.0,0.3477
989.0,0.3566
990.0,0.3455
991.0,0.3575
992.0,0.3597
993.0,0.3501
994.0,0.3598
995.0,0.3596
996.0,0.3577
997.0,0.3584
998.0,0.3566
999.0,0.3554
1000.0,0.3525
1001.0,0.3573
1002.0,0.3459
1003.0,0.3509
1004.0,0.3419
1005.0,0.3299
1006.0,0.3426
1007.0,0.35
1008.0,0.3478
1009.0,0.3456
1010.0,0.344
1011.0,0.3482
1012.0,0.3449
1013.0,0.3475
1014.0,0.345
1015.0,0.3427
1016.0,0.3411
1017.0,0.3419
1018.0,0.3408
1019.0,0.333
1020.0,0.3389
1021.0,0.3386
1022.0,0.3357
1023.0,0.3393
1024.0,0.3342
1025.0,0.3392
1026.0,0.3376
1027.0,0.3369
1028.0,0.3361
1029.0,0.3321
1030.0,0.3346
1031.0,0.3332
1032.0,0.3323
1033.0,0.3272
1034.0,0.3273
1035.0,0.3283
1036.0,0.3299
1037.0,0.3246
1038.0,0.326
1039.0,0.3258
1040.0,0.3245
1041.0,0.3257
1042.0,0.3234
1043.0,0.3224
1044.0,0.3235
1045.0,0.319
1046.0,0.3155
1047.0,0.3183
1048.0,0.32
1049.0,0.3188
1050.0,0.3172
1051.0,0.3167
1052.0,0.3154
1053.0,0.3128
1054.0,0.3134
1055.0,0.3135
1056.0,0.3123
1057.0,0.3112
1058.0,0.3035
1059.0,0.3037
1060.0,0.3032
1061.0,0.3028
1062.0,0.3043
1063.0,0.3012
1064.0,0.3048
1065.0,0.3024
1066.0,0.2966
1067.0,0.3004
1068.0,0.2937
1069.0,0.2847
1070.0,0.2942
1071.0,0.2993
1072.0,0.2955
1073.0,0.2913
1074.0,0.2994
1075.0,0.2828
1076.0,0.2991
1077.0,0.2928
1078.0,0.2869
1079.0,0.2946
1080.0,0.2883
1081.0,0.2783
1082.0,0.2841
1083.0,0.2854
1084.0,0.2772
1085.0,0.2891
1086.0,0.2615
1087.0,0.2716
1088.0,0.2848
1089.0,0.2745
1090.0,0.2676
1091.0,0.2834
1092.0,0.283
1093.0,0.2356
1094.0,0.2584
1095.0,0.246
1096.0,0.2343
1097.0,0.2765
1098.0,0.23
1099.0,0.2407
1100.0,0.2219
1101.0,0.2252
1102.0,0.2139
1103.0,0.211
1104.0,0.2114
1105.0,0.2348
1106.0,0.1724
1107.0,0.2216
1108.0,0.1835
1109.0,0.1847
1110.0,0.219
1111.0,0.1428
1112.0,0.1836
1113.0,0.1111
1114.0,0.1247
1115.0,0.1031
1116.0,0.07894
1117.0,0.02558
1118.0,0.08695
1119.0,0.04027
1120.0,0.05042
1121.0,0.0686
1122.0,0.02644
1123.0,0.04569
1124.0,0.03852
1125.0,0.05097
1126.0,0.01539
1127.0,0.05771
1128.0,0.03191
1129.0,0.03419
1130.0,0.02165
1131.0,0.116
1132.0,0.08977
1133.0,0.05333
1134.0,0.0118
1135.0,0.004536
1136.0,0.04324
1137.0,0.1127
1138.0,0.07874
1139.0,0.1246
1140.0,0.1014
1141.0,0.07489
1142.0,0.08756
1143.0,0.1273
1144.0,0.04113
1145.0,0.05149
1146.0,0.05549
1147.0,0.01712
1148.0,0.11
1149.0,0.08574
1150.0,0.04468
1151.0,0.0781
1152.0,0.09864
1153.0,0.09806
1154.0,0.04969
1155.0,0.1299
1156.0,0.1155
1157.0,0.1321
1158.0,0.1306
1159.0,0.1426
1160.0,0.1201
1161.0,0.1518
1162.0,0.1523
1163.0,0.2121
1164.0,0.1796
1165.0,0.1671
1166.0,0.1677
1167.0,0.1838
1168.0,0.1853
1169.0,0.1905
1170.0,0.2089
1171.0,0.2035
1172.0,0.2083
1173.0,0.2085
1174.0,0.1443
1175.0,0.2046
1176.0,0.2272
1177.0,0.2166
1178.0,0.1593
1179.0,0.2291
1180.0,0.202
1181.0,0.2086
1182.0,0.1403
1183.0,0.2059
1184.0,0.1918
1185.0,0.184
1186.0,0.2217
1187.0,0.2101
1188.0,0.1422
1189.0,0.1955
1190.0,0.2168
1191.0,0.2038
1192.0,0.2201
1193.0,0.2102
1194.0,0.2171
1195.0,0.2039
1196.0,0.1956
1197.0,0.2179
1198.0,0.1985
1199.0,0.1658
1200.0,0.2074
1201.0,0.199
1202.0,0.1986
1203.0,0.1966
1204.0,0.1705
1205.0,0.2041
1206.0,0.227
1207.0,0.1977
1208.0,0.1955
1209.0,0.1998
1210.0,0.2088
1211.0,0.1977
1212.0,0.1939
1213.0,0.2188
1214.0,0.1992
1215.0,0.1952
1216.0,0.2182
1217.0,0.2119
1218.0,0.2164
1219.0,0.2135
1220.0,0.2167
1221.0,0.2192
1222.0,0.2132
1223.0,0.211
1224.0,0.2092
1225.0,0.2177
1226.0,0.2196
1227.0,0.2011
1228.0,0.221
1229.0,0.2196
1230.0,0.2156
1231.0,0.2226
1232.0,0.2213
1233.0,0.2125
1234.0,0.2227
1235.0,0.2211
1236.0,0.2229
1237.0,0.2192
1238.0,0.2221
1239.0,0.2193
1240.0,0.2202
1241.0,0.2188
1242.0,0.2186
1243.0,0.2169
1244.0,0.2183
1245.0,0.2193
1246.0,0.218
1247.0,0.2171
1248.0,0.2168
1249.0,0.2176
1250.0,0.2162
1251.0,0.2132
1252.0,0.2135
1253.0,0.2114
1254.0,0.2089
1255.0,0.2132
1256.0,0.2064
1257.0,0.2051
1258.0,0.2096
1259.0,0.2008
1260.0,0.202
1261.0,0.1891
1262.0,0.1827
1263.0,0.183
1264.0,0.1671
1265.0,0.1818
1266.0,0.1739
1267.0,0.1777
1268.0,0.1673
1269.0,0.09622
1270.0,0.1767
1271.0,0.1887
1272.0,0.1895
1273.0,0.1873
1274.0,0.1881
1275.0,0.1911
1276.0,0.1933
1277.0,0.1949
1278.0,0.1993
1279.0,0.1974
1280.0,0.195
1281.0,0.1863
1282.0,0.18
1283.0,0.1938
1284.0,0.1983
1285.0,0.1997
1286.0,0.2026
1287.0,0.199
1288.0,0.1991
1289.0,0.1919
1290.0,0.1974
1291.0,0.2004
1292.0,0.1865
1293.0,0.1961
1294.0,0.1946
1295.0,0.1931
1296.0,0.1833
1297.0,0.1725
1298.0,0.1875
1299.0,0.1965
1300.0,0.1634
1301.0,0.1689
1302.0,0.1869
1303.0,0.1615
1304.0,0.135
1305.0,0.1829
1306.0,0.1827
1307.0,0.1389
1308.0,0.1623
1309.0,0.1809
1310.0,0.1361
1311.0,0.1549
1312.0,0.1503
1313.0,0.1468
1314.0,0.1305
1315.0,0.1281
1316.0,0.152
1317.0,0.1436
1318.0,0.1573
1319.0,0.1195
1320.0,0.1165
1321.0,0.1369
1322.0,0.1377
1323.0,0.1008
1324.0,0.1173
1325.0,0.1495
1326.0,0.1266
1327.0,0.1202
1328.0,0.1027
1329.0,0.07466
1330.0,0.09846
1331.0,0.05651
1332.0,0.05932
1333.0,0.08319
1334.0,0.07206
1335.0,0.1003
1336.0,0.07775
1337.0,0.06804
1338.0,0.07358
1339.0,0.07368
1340.0,0.07249
1341.0,0.06885
1342.0,0.07251
1343.0,0.04547
1344.0,0.02751
1345.0,0.03973
1346.0,0.01759
1347.0,0.01751
1348.0,0.0008773
1349.0,0.003382
1350.0,0.003695
1351.0,0.0007097
1352.0,0.000146
1353.0,5.741e-06
1354.0,2.374e-05
1355.0,1.087e-07
1356.0,2.763e-06
1357.0,4.227e-06
1358.0,1.318e-07
1359.0,1.075e-08
1360.0,5.166e-08
1361.0,2.356e-11
1362.0,4.537e-14
1363.0,5.977e-08
1364.0,2.478e-08
1365.0,9.781e-15
1366.0,2.929e-07
1367.0,1.327e-07
1368.0,3.151e-17
1369.0,9.116e-09
1370.0,3.741e-09
1371.0,1.724e-10
1372.0,7.354e-08
1373.0,1.975e-06
1374.0,1.121e-05
1375.0,1.99e-05
1376.0,2.162e-05
1377.0,9.504e-06
1378.0,0.0001
1379.0,3.989e-06
1380.0,5.038e-06
1381.0,1.188e-07
1382.0,6.284e-08
1383.0,8.172e-10
1384.0,9.535e-09
1385.0,7.378e-08
1386.0,4.903e-08
1387.0,1.013e-05
1388.0,2.067e-07
1389.0,4.347e-05
1390.0,3.702e-05
1391.0,2.388e-05
1392.0,1.479e-06
1393.0,8.708e-06
1394.0,3.206e-06
1395.0,1.921e-08
1396.0,3.838e-11
1397.0,3.208e-06
1398.0,0.0001094
1399.0,7.012e-05
1400.0,1.3e-11
1401.0,7.529e-11
1402.0,0.0002622
1403.0,0.000311
1404.0,9.232e-05
1405.0,7.984e-09
1406.0,0.0002176
1407.0,2.108e-05
1408.0,0.0001814
1409.0,5.164e-05
1410.0,4.68e-05
1411.0,0.0002768
1412.0,0.0004043
1413.0,0.005208
1414.0,3.779e-05
1415.0,1.684e-05
1416.0,0.009987
1417.0,0.002589
1418.0,0.002836
1419.0,0.000424
1420.0,0.001723
1421.0,0.001896
1422.0,0.01311
1423.0,0.002437
1424.0,0.0047
1425.0,0.006672
1426.0,0.008135
1427.0,0.0162
1428.0,0.0008039
1429.0,0.01146
1430.0,0.02125
1431.0,0.02378
1432.0,0.0006254
1433.0,0.01454
1434.0,0.007113
1435.0,0.00616
1436.0,0.01333
1437.0,0.01026
