interpolation:linear
wavelength,value
280.0,2.473e-22
280.5,8.146e-21
281.0,4.3700000000000006e-20
281.5,3.943e-19
282.0,6.401e-19
282.5,1.588e-18
283.0,5.023e-18
283.5,8.181e-18
284.0,1.349e-16
284.5,3.939e-16
285.0,6.458e-16
285.5,3.227e-15
286.0,1.302e-14
286.5,5.871e-14
287.0,1.686e-13
287.5,6.508e-13
288.0,2.271e-12
288.5,6.813e-12
289.0,1.805e-11
289.5,5.433e-11
290.0,1.506e-10
290.5,3.068e-10
291.0,6.582e-10
291.5,1.889e-09
292.0,3.796e-09
292.5,5.334e-09
293.0,1.146e-08
293.5,2.797e-08
294.0,4.379e-08
294.5,6.001e-08
295.0,1.018e-07
295.5,1.699e-07
296.0,3.302e-07
296.5,4.655e-07
297.0,6.344e-07
297.5,1.724e-06
298.0,2.75e-06
298.5,2.796e-06
299.0,6.233e-06
299.5,1.059e-05
300.0,1.18e-05
300.5,1.735e-05
301.0,3.222e-05
301.5,5.263e-05
302.0,4.558e-05
302.5,9.187e-05
303.0,0.0001727
303.5,0.0002255
304.0,0.0002198
304.5,0.0003617
305.0,0.000632
305.5,0.0007935
306.0,0.0007962
306.5,0.001054
307.0,0.001792
307.5,0.002725
308.0,0.002943
308.5,0.003719
309.0,0.003747
309.5,0.004775
310.0,0.00504
310.5,0.008365
311.0,0.01093
311.5,0.01073
312.0,0.0117
312.5,0.01506
313.0,0.01683
313.5,0.0159
314.0,0.02127
314.5,0.02062
315.0,0.02753
315.5,0.02206
316.0,0.02071
316.5,0.03163
317.0,0.03923
317.5,0.04012
318.0,0.03264
318.5,0.04392
319.0,0.05428
319.5,0.04146
320.0,0.04962
320.5,0.06739
321.0,0.06457
321.5,0.06237
322.0,0.06146
322.5,0.05369
323.0,0.05629
323.5,0.07264
324.0,0.0855
324.5,0.08502
325.0,0.0715
325.5,0.09585
326.0,0.1187
326.5,0.1222
327.0,0.1206
327.5,0.1151
328.0,0.09888
328.5,0.1085
329.0,0.1345
329.5,0.1544
330.0,0.1545
330.5,0.1204
331.0,0.1216
331.5,0.1261
332.0,0.1403
332.5,0.1406
333.0,0.1392
333.5,0.1234
334.0,0.126
334.5,0.149
335.0,0.142
335.5,0.1665
336.0,0.1152
336.5,0.1336
337.0,0.1086
337.5,0.1346
338.0,0.1341
338.5,0.1557
339.0,0.1543
339.5,0.1484
340.0,0.1736
340.5,0.1569
341.0,0.1536
341.5,0.1414
342.0,0.1692
342.5,0.1585
343.0,0.1742
343.5,0.1639
344.0,0.1207
344.5,0.1223
345.0,0.1623
345.5,0.166
346.0,0.1413
346.5,0.1602
347.0,0.1719
347.5,0.139
348.0,0.1588
348.5,0.1589
349.0,0.1476
349.5,0.1462
350.0,0.181
350.5,0.191
351.0,0.1706
351.5,0.1656
352.0,0.1782
352.5,0.1393
353.0,0.1756
353.5,0.188
354.0,0.1953
354.5,0.1982
355.0,0.1975
355.5,0.1787
356.0,0.1871
356.5,0.1598
357.0,0.1321
357.5,0.1618
358.0,0.1283
358.5,0.1097
359.0,0.1535
359.5,0.1956
360.0,0.2075
360.5,0.1659
361.0,0.1514
361.5,0.1746
362.0,0.1512
362.5,0.2095
363.0,0.1883
363.5,0.1736
364.0,0.2126
364.5,0.1818
365.0,0.1853
365.5,0.2327
366.0,0.2468
366.5,0.2321
367.0,0.2262
367.5,0.2349
368.0,0.2057
368.5,0.2077
369.0,0.2245
369.5,0.2395
370.0,0.2555
370.5,0.1984
371.0,0.2122
371.5,0.2656
372.0,0.1764
372.5,0.2117
373.0,0.2155
373.5,0.1403
374.0,0.2041
374.5,0.1691
375.0,0.1645
375.5,0.2458
376.0,0.2038
376.5,0.2114
377.0,0.224
377.5,0.2622
378.0,0.2844
378.5,0.2689
379.0,0.222
379.5,0.2028
380.0,0.211
380.5,0.2558
381.0,0.2566
381.5,0.2036
382.0,0.181
382.5,0.1545
383.0,0.1432
383.5,0.138
384.0,0.1524
384.5,0.2243
385.0,0.2226
385.5,0.2075
386.0,0.1778
386.5,0.2338
387.0,0.1944
387.5,0.2185
388.0,0.2019
388.5,0.1997
389.0,0.2157
389.5,0.2615
390.0,0.2626
390.5,0.2419
391.0,0.2849
391.5,0.2908
392.0,0.2451
392.5,0.2196
393.0,0.1223
393.5,0.08898
394.0,0.1812
394.5,0.2305
395.0,0.2815
395.5,0.2861
396.0,0.2482
396.5,0.1452
397.0,0.1091
397.5,0.222
398.0,0.311
398.5,0.3216
399.0,0.3487
399.5,0.3478
400.0,0.3612
401.0,0.3642
402.0,0.3849
403.0,0.3663
404.0,0.3611
405.0,0.3614
406.0,0.3562
407.0,0.351
408.0,0.3649
409.0,0.391
410.0,0.3422
411.0,0.3711
412.0,0.3993
413.0,0.3897
414.0,0.3951
415.0,0.3967
416.0,0.4043
417.0,0.3947
418.0,0.3878
419.0,0.3934
420.0,0.3921
421.0,0.4107
422.0,0.3907
423.0,0.3821
424.0,0.4044
425.0,0.4041
426.0,0.3944
427.0,0.3874
428.0,0.3777
429.0,0.3584
430.0,0.314
431.0,0.3113
432.0,0.4026
433.0,0.4052
434.0,0.3765
435.0,0.3934
436.0,0.444
437.0,0.4387
438.0,0.4
439.0,0.4133
440.0,0.4269
441.0,0.443
442.0,0.4754
443.0,0.463
444.0,0.4736
445.0,0.4635
446.0,0.4432
447.0,0.48
448.0,0.4872
449.0,0.4901
450.0,0.5043
451.0,0.5234
452.0,0.5047
453.0,0.4752
454.0,0.4967
455.0,0.4999
456.0,0.5121
457.0,0.5208
458.0,0.5027
459.0,0.5004
460.0,0.5016
461.0,0.5134
462.0,0.518
463.0,0.5145
464.0,0.507
465.0,0.5015
466.0,0.507
467.0,0.4976
468.0,0.5036
469.0,0.5063
470.0,0.4901
471.0,0.4897
472.0,0.5161
473.0,0.5094
474.0,0.5097
475.0,0.5135
476.0,0.4973
477.0,0.4982
478.0,0.5123
479.0,0.5096
480.0,0.5111
481.0,0.5214
482.0,0.5249
483.0,0.5195
484.0,0.5094
485.0,0.4859
486.0,0.4254
487.0,0.4464
488.0,0.4898
489.0,0.4911
490.0,0.5171
491.0,0.5086
492.0,0.4804
493.0,0.4962
494.0,0.5014
495.0,0.5058
496.0,0.5089
497.0,0.5167
498.0,0.4925
499.0,0.4985
500.0,0.4835
501.0,0.4741
502.0,0.4664
503.0,0.4843
504.0,0.4689
505.0,0.4882
506.0,0.5039
507.0,0.4797
508.0,0.4657
509.0,0.4795
510.0,0.4776
511.0,0.4911
512.0,0.4968
513.0,0.4703
514.0,0.4674
515.0,0.4628
516.0,0.4615
517.0,0.4103
518.0,0.4313
519.0,0.4523
520.0,0.4686
521.0,0.473
522.0,0.4731
523.0,0.4644
524.0,0.4805
525.0,0.4853
526.0,0.4633
527.0,0.4359
528.0,0.4605
529.0,0.485
530.0,0.4777
531.0,0.4845
532.0,0.4677
533.0,0.4541
534.0,0.4677
535.0,0.4783
536.0,0.4831
537.0,0.4644
538.0,0.4727
539.0,0.4687
540.0,0.4492
541.0,0.4513
542.0,0.4649
543.0,0.4608
544.0,0.468
545.0,0.4667
546.0,0.468
547.0,0.4684
548.0,0.4632
549.0,0.4648
550.0,0.4704
551.0,0.4648
552.0,0.4681
553.0,0.4596
554.0,0.4705
555.0,0.4712
556.0,0.4649
557.0,0.4502
558.0,0.4463
559.0,0.4375
560.0,0.4426
561.0,0.4479
562.0,0.444
563.0,0.4555
564.0,0.4425
565.0,0.4382
566.0,0.4313
567.0,0.4389
568.0,0.4333
569.0,0.42
570.0,0.4202
571.0,0.4185
572.0,0.4264
573.0,0.4306
574.0,0.4288
575.0,0.42
576.0,0.4163
577.0,0.4211
578.0,0.4157
579.0,0.4188
580.0,0.429
581.0,0.433
582.0,0.4427
583.0,0.4451
584.0,0.4498
585.0,0.4393
586.0,0.4303
587.0,0.4388
588.0,0.4243
589.0,0.3685
590.0,0.3859
591.0,0.4128
592.0,0.405
593.0,0.4144
594.0,0.4101
595.0,0.3972
596.0,0.419
597.0,0.4129
598.0,0.4137
599.0,0.4149
600.0,0.417
601.0,0.4148
602.0,0.4122
603.0,0.4196
604.0,0.4269
605.0,0.4251
606.0,0.424
607.0,0.4289
608.0,0.4249
609.0,0.4262
610.0,0.4239
611.0,0.4265
612.0,0.4257
613.0,0.4207
614.0,0.4155
615.0,0.4252
616.0,0.4116
617.0,0.4111
618.0,0.4273
619.0,0.4232
620.0,0.4259
621.0,0.4258
622.0,0.4203
623.0,0.4135
624.0,0.4069
625.0,0.406
626.0,0.4118
627.0,0.4149
628.0,0.3701
629.0,0.399
630.0,0.3892
631.0,0.404
632.0,0.4003
633.0,0.4149
634.0,0.4128
635.0,0.4203
636.0,0.4158
637.0,0.4235
638.0,0.429
639.0,0.4249
640.0,0.4216
641.0,0.422
642.0,0.4208
643.0,0.4266
644.0,0.426
645.0,0.4262
646.0,0.4142
647.0,0.4044
648.0,0.405
649.0,0.3965
650.0,0.4047
651.0,0.4233
652.0,0.3995
653.0,0.4181
654.0,0.4139
655.0,0.3953
656.0,0.3526
657.0,0.3625
658.0,0.4082
659.0,0.412
660.0,0.4142
661.0,0.4173
662.0,0.417
663.0,0.4092
664.0,0.4158
665.0,0.4175
666.0,0.4184
667.0,0.4187
668.0,0.4196
669.0,0.4266
670.0,0.425
671.0,0.4253
672.0,0.4219
673.0,0.4286
674.0,0.4273
675.0,0.4237
676.0,0.4269
677.0,0.4229
678.0,0.4243
679.0,0.4177
680.0,0.4212
681.0,0.4185
682.0,0.418
683.0,0.4173
684.0,0.4152
685.0,0.4191
686.0,0.4162
687.0,0.205
688.0,0.2708
689.0,0.2729
690.0,0.2975
691.0,0.3266
692.0,0.3497
693.0,0.3462
694.0,0.3449
695.0,0.3684
696.0,0.3694
697.0,0.4027
698.0,0.3962
699.0,0.3794
700.0,0.3744
701.0,0.3678
702.0,0.3732
703.0,0.3746
704.0,0.391
705.0,0.3915
706.0,0.3928
707.0,0.3939
708.0,0.3945
709.0,0.3981
710.0,0.3964
711.0,0.397
712.0,0.3972
713.0,0.3919
714.0,0.3938
715.0,0.3783
716.0,0.3778
717.0,0.3013
718.0,0.2745
719.0,0.2494
720.0,0.2586
721.0,0.3003
722.0,0.3598
723.0,0.327
724.0,0.2847
725.0,0.277
726.0,0.2907
727.0,0.3016
728.0,0.2751
729.0,0.2945
730.0,0.3096
731.0,0.2945
732.0,0.3247
733.0,0.3526
734.0,0.3639
735.0,0.3548
736.0,0.354
737.0,0.3554
738.0,0.368
739.0,0.3609
740.0,0.3724
741.0,0.37
742.0,0.3717
743.0,0.3815
744.0,0.3813
745.0,0.3821
746.0,0.3838
747.0,0.3848
748.0,0.3841
749.0,0.3798
750.0,0.3796
751.0,0.3758
752.0,0.3775
753.0,0.3795
754.0,0.3804
755.0,0.3782
756.0,0.3781
757.0,0.3787
758.0,0.3738
759.0,0.3616
760.0,0.01704
761.0,0.00599
762.0,0.115
763.0,0.03464
764.0,0.0696
765.0,0.1147
766.0,0.1687
767.0,0.2465
768.0,0.3155
769.0,0.3297
770.0,0.3495
771.0,0.3562
772.0,0.3582
773.0,0.361
774.0,0.3596
775.0,0.357
776.0,0.3615
777.0,0.3567
778.0,0.3545
779.0,0.3548
780.0,0.3529
781.0,0.3534
782.0,0.3557
783.0,0.3496
784.0,0.3514
785.0,0.3485
786.0,0.352
787.0,0.3424
788.0,0.3365
789.0,0.3363
790.0,0.3227
791.0,0.3301
792.0,0.3284
793.0,0.3226
794.0,0.3329
795.0,0.3372
796.0,0.3203
797.0,0.3201
798.0,0.336
799.0,0.3327
800.0,0.3253
801.0,0.3227
802.0,0.3217
803.0,0.3184
804.0,0.3196
805.0,0.3206
806.0,0.3329
807.0,0.3282
808.0,0.3287
809.0,0.32
810.0,0.3159
811.0,0.3129
812.0,0.2994
813.0,0.2913
814.0,0.2441
815.0,0.2435
816.0,0.225
817.0,0.2299
818.0,0.2185
819.0,0.2547
820.0,0.2362
821.0,0.2916
822.0,0.2808
823.0,0.1679
824.0,0.2666
825.0,0.2866
826.0,0.2706
827.0,0.2908
828.0,0.2317
829.0,0.27
830.0,0.2654
831.0,0.2663
832.0,0.2555
833.0,0.2786
834.0,0.2642
835.0,0.3012
836.0,0.2808
837.0,0.3022
838.0,0.289
839.0,0.2982
840.0,0.3057
841.0,0.2998
842.0,0.3029
843.0,0.3054
844.0,0.2998
845.0,0.3118
846.0,0.3109
847.0,0.3058
848.0,0.3028
849.0,0.2942
850.0,0.282
851.0,0.2973
852.0,0.2958
853.0,0.2857
854.0,0.2458
855.0,0.2713
856.0,0.296
857.0,0.3034
858.0,0.3007
859.0,0.3016
860.0,0.3025
861.0,0.3007
862.0,0.3056
863.0,0.3128
864.0,0.2973
865.0,0.2948
866.0,0.2651
867.0,0.2766
868.0,0.3011
869.0,0.2949
870.0,0.3033
871.0,0.2992
872.0,0.2982
873.0,0.2976
874.0,0.2941
875.0,0.2881
876.0,0.291
877.0,0.294
878.0,0.297
879.0,0.2925
880.0,0.2863
881.0,0.2814
882.0,0.2872
883.0,0.2887
884.0,0.2872
885.0,0.2893
886.0,0.2736
887.0,0.2782
888.0,0.2814
889.0,0.2863
890.0,0.2817
891.0,0.2824
892.0,0.2713
893.0,0.2601
894.0,0.2448
895.0,0.2239
896.0,0.209
897.0,0.171
898.0,0.1907
899.0,0.1357
900.0,0.2008
901.0,0.1422
902.0,0.1793
903.0,0.1766
904.0,0.2428
905.0,0.2319
906.0,0.2146
907.0,0.1605
908.0,0.1665
909.0,0.1856
910.0,0.1539
911.0,0.1718
912.0,0.1802
913.0,0.1556
914.0,0.1565
915.0,0.1687
916.0,0.1414
917.0,0.1895
918.0,0.1441
919.0,0.1965
920.0,0.2063
921.0,0.2141
922.0,0.1838
923.0,0.2077
924.0,0.1862
925.0,0.1828
926.0,0.1834
927.0,0.2128
928.0,0.1347
929.0,0.1175
930.0,0.08375
931.0,0.07946
932.0,0.04899
933.0,0.03644
934.0,0.01357
935.0,0.03991
936.0,0.02049
937.0,0.0206
938.0,0.02686
939.0,0.07676
940.0,0.09871
941.0,0.06658
942.0,0.08111
943.0,0.04747
944.0,0.05598
945.0,0.0704
946.0,0.02821
947.0,0.0686
948.0,0.04967
949.0,0.09969
950.0,0.01762
951.0,0.09913
952.0,0.04373
953.0,0.06277
954.0,0.08426
955.0,0.06428
956.0,0.06998
957.0,0.0433
958.0,0.1073
959.0,0.07583
960.0,0.08502
961.0,0.1029
962.0,0.09702
963.0,0.1185
964.0,0.1067
965.0,0.1178
966.0,0.1171
967.0,0.1155
968.0,0.1818
969.0,0.1857
970.0,0.1682
971.0,0.2045
972.0,0.1929
973.0,0.156
974.0,0.1471
975.0,0.1566
976.0,0.1419
977.0,0.1756
978.0,0.1609
979.0,0.1718
980.0,0.1599
981.0,0.2036
982.0,0.1902
983.0,0.1802
984.0,0.2154
985.0,0.1892
986.0,0.2227
987.0,0.2144
988.0,0.2143
989.0,0.2244
990.0,0.2129
991.0,0.2246
992.0,0.2263
993.0,0.2173
994.0,0.2267
995.0,0.227
996.0,0.2254
997.0,0.226
998.0,0.2247
999.0,0.2241
1000.0,0.2215
1001.0,0.2254
1002.0,0.2152
1003.0,0.2212
1004.0,0.2147
1005.0,0.2083
1006.0,0.2157
1007.0,0.2207
1008.0,0.2188
1009.0,0.2168
1010.0,0.2155
1011.0,0.2196
1012.0,0.217
1013.0,0.2193
1014.0,0.2178
1015.0,0.2162
1016.0,0.2152
1017.0,0.2156
1018.0,0.2153
1019.0,0.2091
1020.0,0.2139
1021.0,0.2139
1022.0,0.2116
1023.0,0.2138
1024.0,0.2094
1025.0,0.2142
1026.0,0.2128
1027.0,0.2124
1028.0,0.2119
1029.0,0.2092
1030.0,0.2112
1031.0,0.2101
1032.0,0.2097
1033.0,0.2065
1034.0,0.2066
1035.0,0.2072
1036.0,0.2081
1037.0,0.2048
1038.0,0.2056
1039.0,0.2054
1040.0,0.2046
1041.0,0.2052
1042.0,0.2038
1043.0,0.2031
1044.0,0.2037
1045.0,0.2008
1046.0,0.1985
1047.0,0.2002
1048.0,0.2011
1049.0,0.2003
1050.0,0.1992
1051.0,0.1988
1052.0,0.1978
1053.0,0.196
1054.0,0.1963
1055.0,0.1961
1056.0,0.1952
1057.0,0.1944
1058.0,0.1894
1059.0,0.1893
1060.0,0.1889
1061.0,0.1885
1062.0,0.1892
1063.0,0.1872
1064.0,0.1895
1065.0,0.1875
1066.0,0.1843
1067.0,0.1865
1068.0,0.182
1069.0,0.1767
1070.0,0.1823
1071.0,0.1866
1072.0,0.1834
1073.0,0.1809
1074.0,0.1872
1075.0,0.1739
1076.0,0.1868
1077.0,0.1813
1078.0,0.1768
1079.0,0.1845
1080.0,0.1785
1081.0,0.1708
1082.0,0.1769
1083.0,0.1784
1084.0,0.1696
1085.0,0.1793
1086.0,0.1584
1087.0,0.1669
1088.0,0.1776
1089.0,0.1682
1090.0,0.1627
1091.0,0.176
1092.0,0.1762
1093.0,0.1395
1094.0,0.16
1095.0,0.1458
1096.0,0.1369
1097.0,0.1722
1098.0,0.1332
1099.0,0.1404
1100.0,0.1268
1101.0,0.1298
1102.0,0.1212
1103.0,0.1182
1104.0,0.1186
1105.0,0.1364
1106.0,0.08914
1107.0,0.1267
1108.0,0.09841
1109.0,0.1001
1110.0,0.1237
1111.0,0.07199
1112.0,0.09987
1113.0,0.05238
1114.0,0.059
1115.0,0.04803
1116.0,0.03273
1117.0,0.007471
1118.0,0.03688
1119.0,0.01397
1120.0,0.01695
1121.0,0.02464
1122.0,0.007203
1123.0,0.01549
1124.0,0.01301
1125.0,0.01805
1126.0,0.003441
1127.0,0.02064
1128.0,0.008941
1129.0,0.009788
1130.0,0.005877
1131.0,0.04934
1132.0,0.03662
1133.0,0.01785
1134.0,0.002583
1135.0,0.001099
1136.0,0.01319
1137.0,0.04631
1138.0,0.03159
1139.0,0.05976
1140.0,0.04501
1141.0,0.03018
1142.0,0.03692
1143.0,0.0581
1144.0,0.01498
1145.0,0.01718
1146.0,0.01847
1147.0,0.00378
1148.0,0.04946
1149.0,0.03604
1150.0,0.01727
1151.0,0.03135
1152.0,0.04272
1153.0,0.04503
1154.0,0.01701
1155.0,0.06218
1156.0,0.05333
1157.0,0.06545
1158.0,0.06452
1159.0,0.07236
1160.0,0.05964
1161.0,0.08094
1162.0,0.08053
1163.0,0.1229
1164.0,0.1004
1165.0,0.08967
1166.0,0.09328
1167.0,0.104
1168.0,0.104
1169.0,0.1078
1170.0,0.1216
1171.0,0.1185
1172.0,0.1236
1173.0,0.1215
1174.0,0.07695
1175.0,0.1214
1176.0,0.1395
1177.0,0.1297
1178.0,0.08991
1179.0,0.1407
1180.0,0.119
1181.0,0.123
1182.0,0.07635
1183.0,0.1225
1184.0,0.1118
1185.0,0.1052
1186.0,0.1338
1187.0,0.1245
1188.0,0.07604
1189.0,0.1156
1190.0,0.1314
1191.0,0.1189
1192.0,0.1338
1193.0,0.1263
1194.0,0.1315
1195.0,0.1203
1196.0,0.1137
1197.0,0.1331
1198.0,0.12
1199.0,0.094
1200.0,0.1246
1201.0,0.1171
1202.0,0.119
1203.0,0.1164
1204.0,0.0985
1205.0,0.124
1206.0,0.141
1207.0,0.1175
1208.0,0.1181
1209.0,0.121
1210.0,0.1279
1211.0,0.119
1212.0,0.1129
1213.0,0.1341
1214.0,0.1173
1215.0,0.1147
1216.0,0.1342
1217.0,0.1291
1218.0,0.1329
1219.0,0.1303
1220.0,0.1332
1221.0,0.1355
1222.0,0.1314
1223.0,0.1294
1224.0,0.1269
1225.0,0.1344
1226.0,0.1365
1227.0,0.1216
1228.0,0.1382
1229.0,0.1365
1230.0,0.1334
1231.0,0.14
1232.0,0.1391
1233.0,0.1306
1234.0,0.1408
1235.0,0.1393
1236.0,0.1408
1237.0,0.1373
1238.0,0.1403
1239.0,0.1385
1240.0,0.1392
1241.0,0.1376
1242.0,0.1381
1243.0,0.1371
1244.0,0.1377
1245.0,0.1385
1246.0,0.1377
1247.0,0.1369
1248.0,0.1363
1249.0,0.1372
1250.0,0.1361
1251.0,0.1337
1252.0,0.1345
1253.0,0.132
1254.0,0.1297
1255.0,0.134
1256.0,0.1277
1257.0,0.1265
1258.0,0.1309
1259.0,0.1222
1260.0,0.1233
1261.0,0.1117
1262.0,0.1059
1263.0,0.106
1264.0,0.0924
1265.0,0.1054
1266.0,0.09815
1267.0,0.1021
1268.0,0.09332
1269.0,0.03911
1270.0,0.1009
1271.0,0.1119
1272.0,0.1128
1273.0,0.111
1274.0,0.1121
1275.0,0.1146
1276.0,0.1167
1277.0,0.1187
1278.0,0.1228
1279.0,0.1216
1280.0,0.1202
1281.0,0.1156
1282.0,0.1129
1283.0,0.1213
1284.0,0.1239
1285.0,0.125
1286.0,0.1275
1287.0,0.124
1288.0,0.1244
1289.0,0.1175
1290.0,0.1235
1291.0,0.1258
1292.0,0.1128
1293.0,0.1221
1294.0,0.121
1295.0,0.1186
1296.0,0.11
1297.0,0.1018
1298.0,0.1146
1299.0,0.1227
1300.0,0.09569
1301.0,0.1
1302.0,0.1144
1303.0,0.09522
1304.0,0.07397
1305.0,0.1116
1306.0,0.1108
1307.0,0.07825
1308.0,0.09666
1309.0,0.1087
1310.0,0.07608
1311.0,0.09093
1312.0,0.08749
1313.0,0.08398
1314.0,0.07254
1315.0,0.07002
1316.0,0.08808
1317.0,0.08237
1318.0,0.09269
1319.0,0.06385
1320.0,0.06351
1321.0,0.07705
1322.0,0.07617
1323.0,0.05052
1324.0,0.06299
1325.0,0.08584
1326.0,0.06943
1327.0,0.06498
1328.0,0.05363
1329.0,0.03455
1330.0,0.04804
1331.0,0.02316
1332.0,0.02552
1333.0,0.0366
1334.0,0.03497
1335.0,0.04972
1336.0,0.03584
1337.0,0.03085
1338.0,0.03296
1339.0,0.03359
1340.0,0.03443
1341.0,0.02943
1342.0,0.03148
1343.0,0.01521
1344.0,0.009705
1345.0,0.01352
1346.0,0.004025
1347.0,0.003674
1348.0,8.494e-05
1349.0,0.0003843
1350.0,0.000468
1351.0,4.408e-05
1352.0,3.645e-06
1353.0,1.004e-07
1354.0,5.775e-07
1355.0,1.631e-09
1356.0,4.855e-08
1357.0,7.315e-08
1358.0,1.952e-09
1359.0,2.079e-10
1360.0,8.068e-10
1361.0,8.213e-13
1362.0,2.244e-15
1363.0,1.018e-09
1364.0,4.257e-10
1365.0,7.832e-16
1366.0,4.512e-09
1367.0,1.964e-09
1368.0,6.047e-18
1369.0,1.571e-10
1370.0,7.523e-11
1371.0,4.22e-12
1372.0,1.08e-09
1373.0,2.818e-08
1374.0,1.932e-07
1375.0,2.99e-07
1376.0,5.37e-07
1377.0,2.218e-07
1378.0,2.289e-06
1379.0,9.724e-08
1380.0,8.858e-08
1381.0,2.029e-09
1382.0,9.203e-10
1383.0,1.332e-11
1384.0,1.677e-10
1385.0,1.049e-09
1386.0,7.705e-10
1387.0,1.339e-07
1388.0,3.474e-09
1389.0,8.29e-07
1390.0,6.5e-07
1391.0,4.276e-07
1392.0,2.793e-08
1393.0,1.918e-07
1394.0,4.195e-08
1395.0,2.688e-10
1396.0,1.071e-12
1397.0,6.134e-08
1398.0,2.236e-06
1399.0,1.517e-06
1400.0,4.568e-13
1401.0,1.903e-12
1402.0,1.536e-05
1403.0,1.43e-05
1404.0,3.705e-06
1405.0,1.155e-10
1406.0,6.042e-06
1407.0,1.044e-06
1408.0,5.445e-06
1409.0,1.001e-06
1410.0,1.49e-06
1411.0,1.343e-05
1412.0,2.567e-05
1413.0,0.0005887
1414.0,1.317e-06
1415.0,4.87e-07
1416.0,0.001985
1417.0,0.0003598
1418.0,0.0002947
1419.0,4.068e-05
1420.0,0.000177
1421.0,0.0002467
1422.0,0.002587
1423.0,0.0004581
1424.0,0.0009925
1425.0,0.001203
1426.0,0.001859
1427.0,0.004356
1428.0,6.978e-05
1429.0,0.002618
