interpolation:linear
wavelength,value
280.0,2.794e-21
280.5,8.770000000000001e-20
281.0,4.629e-19
281.5,3.375e-19
282.0,1.015e-18
282.5,2.69e-18
283.0,8.747e-18
283.5,1.435e-17
284.0,2.349e-16
284.5,6.79e-16
285.0,1.539e-15
285.5,7.462e-15
286.0,2.983e-14
286.5,1.315e-13
287.0,3.719e-13
287.5,1.406e-12
288.0,3.755e-12
288.5,1.246e-11
289.0,3.533e-11
289.5,1.118e-10
290.0,3.192e-10
290.5,6.636e-10
291.0,1.451e-09
291.5,4.238e-09
292.0,9.13e-09
292.5,1.373e-08
293.0,3.211e-08
293.5,8.795e-08
294.0,1.496e-07
294.5,1.936e-07
295.0,3.56e-07
295.5,9.281e-07
296.0,1.86e-06
296.5,2.713e-06
297.0,3.814e-06
297.5,1.089e-05
298.0,1.82e-05
298.5,1.923e-05
299.0,4.459e-05
299.5,8.137e-05
300.0,9.486e-05
300.5,0.0001465
301.0,0.0002977
301.5,0.0005385
302.0,0.0004978
302.5,0.000984
303.0,0.001794
303.5,0.002281
304.0,0.002158
304.5,0.003275
305.0,0.005075
305.5,0.00589
306.0,0.00573
306.5,0.007194
307.0,0.01085
307.5,0.01466
308.0,0.01552
308.5,0.01846
309.0,0.01822
309.5,0.02101
310.0,0.02118
310.5,0.03437
311.0,0.04328
311.5,0.04184
312.0,0.04209
312.5,0.05142
313.0,0.05589
313.5,0.05419
314.0,0.06806
314.5,0.06069
315.0,0.07985
315.5,0.06664
316.0,0.05847
316.5,0.08427
317.0,0.1046
317.5,0.1088
318.0,0.08511
318.5,0.1061
319.0,0.1263
319.5,0.1026
320.0,0.1239
320.5,0.1558
321.0,0.1392
321.5,0.1335
322.0,0.1418
322.5,0.1234
323.0,0.1232
323.5,0.1518
324.0,0.1773
324.5,0.1799
325.0,0.1553
325.5,0.2001
326.0,0.2448
326.5,0.2454
327.0,0.2445
327.5,0.2361
328.0,0.2101
328.5,0.2211
329.0,0.2651
329.5,0.301
330.0,0.3037
330.5,0.2429
331.0,0.2475
331.5,0.2517
332.0,0.2722
332.5,0.2694
333.0,0.2686
333.5,0.243
334.0,0.249
334.5,0.2876
335.0,0.2704
335.5,0.3159
336.0,0.2186
336.5,0.256
337.0,0.2101
337.5,0.2613
338.0,0.2553
338.5,0.2948
339.0,0.2919
339.5,0.2808
340.0,0.3301
340.5,0.2976
341.0,0.2903
341.5,0.2666
342.0,0.3188
342.5,0.2983
343.0,0.3281
343.5,0.309
344.0,0.2285
344.5,0.2308
345.0,0.3055
345.5,0.3121
346.0,0.2653
346.5,0.3005
347.0,0.3227
347.5,0.261
348.0,0.2976
348.5,0.2976
349.0,0.2761
349.5,0.2735
350.0,0.3384
350.5,0.357
351.0,0.319
351.5,0.3101
352.0,0.3332
352.5,0.2601
353.0,0.3277
353.5,0.3505
354.0,0.364
354.5,0.3692
355.0,0.3681
355.5,0.3326
356.0,0.3481
356.5,0.2973
357.0,0.2457
357.5,0.3009
358.0,0.2385
358.5,0.2039
359.0,0.2852
359.5,0.3635
360.0,0.3854
360.5,0.3082
361.0,0.281
361.5,0.3237
362.0,0.2801
362.5,0.3878
363.0,0.3485
363.5,0.3211
364.0,0.3928
364.5,0.3359
365.0,0.3422
365.5,0.4296
366.0,0.4553
366.5,0.428
367.0,0.4169
367.5,0.4328
368.0,0.3788
368.5,0.3824
369.0,0.4131
369.5,0.4404
370.0,0.4697
370.5,0.3646
371.0,0.3898
371.5,0.4877
372.0,0.3238
372.5,0.3884
373.0,0.3952
373.5,0.2572
374.0,0.3739
374.5,0.3097
375.0,0.3012
375.5,0.4497
376.0,0.3729
376.5,0.3865
377.0,0.4094
377.5,0.4791
378.0,0.5194
378.5,0.4911
379.0,0.4053
379.5,0.3703
380.0,0.3851
380.5,0.4666
381.0,0.4678
381.5,0.371
382.0,0.3296
382.5,0.2811
383.0,0.2603
383.5,0.2508
384.0,0.2767
384.5,0.4072
385.0,0.4039
385.5,0.3763
386.0,0.3224
386.5,0.4236
387.0,0.3521
387.5,0.3956
388.0,0.3653
388.5,0.3612
389.0,0.39
389.5,0.4726
390.0,0.4744
390.5,0.4367
391.0,0.5142
391.5,0.5246
392.0,0.442
392.5,0.3958
393.0,0.2203
393.5,0.1602
394.0,0.3261
394.5,0.4147
395.0,0.5062
395.5,0.5143
396.0,0.446
396.5,0.2608
397.0,0.1958
397.5,0.3983
398.0,0.5578
398.5,0.5767
399.0,0.6248
399.5,0.6229
400.0,0.6469
401.0,0.6556
402.0,0.6921
403.0,0.6579
404.0,0.648
405.0,0.6482
406.0,0.638
407.0,0.6281
408.0,0.6528
409.0,0.699
410.0,0.611
411.0,0.6622
412.0,0.7116
413.0,0.6941
414.0,0.703
415.0,0.7051
416.0,0.7178
417.0,0.7004
418.0,0.6877
419.0,0.697
420.0,0.6942
421.0,0.7265
422.0,0.6908
423.0,0.675
424.0,0.7141
425.0,0.7131
426.0,0.6949
427.0,0.6822
428.0,0.6647
429.0,0.6299
430.0,0.5514
431.0,0.5466
432.0,0.7061
433.0,0.7102
434.0,0.6596
435.0,0.689
436.0,0.7766
437.0,0.7665
438.0,0.6982
439.0,0.7221
440.0,0.7453
441.0,0.7726
442.0,0.8288
443.0,0.8072
444.0,0.825
445.0,0.8072
446.0,0.7707
447.0,0.8335
448.0,0.8465
449.0,0.8502
450.0,0.8742
451.0,0.9068
452.0,0.8739
453.0,0.8221
454.0,0.8585
455.0,0.8639
456.0,0.8846
457.0,0.8994
458.0,0.8687
459.0,0.8643
460.0,0.8666
461.0,0.8867
462.0,0.8938
463.0,0.8877
464.0,0.8733
465.0,0.8626
466.0,0.8712
467.0,0.8552
468.0,0.8653
469.0,0.8699
470.0,0.8422
471.0,0.8412
472.0,0.8864
473.0,0.8749
474.0,0.876
475.0,0.8834
476.0,0.8568
477.0,0.859
478.0,0.883
479.0,0.8778
480.0,0.8796
481.0,0.8963
482.0,0.9012
483.0,0.8906
484.0,0.8725
485.0,0.8314
486.0,0.727
487.0,0.7621
488.0,0.8361
489.0,0.8386
490.0,0.8824
491.0,0.8673
492.0,0.8191
493.0,0.846
494.0,0.8545
495.0,0.8618
496.0,0.8672
497.0,0.8806
498.0,0.8394
499.0,0.8501
500.0,0.8252
501.0,0.8099
502.0,0.7983
503.0,0.8305
504.0,0.8085
505.0,0.8382
506.0,0.8653
507.0,0.8234
508.0,0.7981
509.0,0.8207
510.0,0.8165
511.0,0.8386
512.0,0.8478
513.0,0.8025
514.0,0.797
515.0,0.7891
516.0,0.7872
517.0,0.6995
518.0,0.7354
519.0,0.7713
520.0,0.7994
521.0,0.8069
522.0,0.8076
523.0,0.793
524.0,0.8212
525.0,0.8307
526.0,0.7935
527.0,0.7475
528.0,0.7905
529.0,0.8331
530.0,0.821
531.0,0.8331
532.0,0.8045
533.0,0.7809
534.0,0.8041
535.0,0.8217
536.0,0.8294
537.0,0.7968
538.0,0.8109
539.0,0.8041
540.0,0.7709
541.0,0.7757
542.0,0.7999
543.0,0.7917
544.0,0.8052
545.0,0.8027
546.0,0.8061
547.0,0.8059
548.0,0.7963
549.0,0.7988
550.0,0.8083
551.0,0.7986
552.0,0.8041
553.0,0.7897
554.0,0.8086
555.0,0.8101
556.0,0.7996
557.0,0.7746
558.0,0.7687
559.0,0.7542
560.0,0.7635
561.0,0.7732
562.0,0.7675
563.0,0.7883
564.0,0.7666
565.0,0.7599
566.0,0.7486
567.0,0.7626
568.0,0.7553
569.0,0.7364
570.0,0.7364
571.0,0.7322
572.0,0.7491
573.0,0.757
574.0,0.7545
575.0,0.7402
576.0,0.7334
577.0,0.7415
578.0,0.7306
579.0,0.734
580.0,0.7486
581.0,0.753
582.0,0.7677
583.0,0.7699
584.0,0.7769
585.0,0.7581
586.0,0.7425
587.0,0.7585
588.0,0.7388
589.0,0.6523
590.0,0.6823
591.0,0.7234
592.0,0.7135
593.0,0.7251
594.0,0.7196
595.0,0.701
596.0,0.7305
597.0,0.7222
598.0,0.7209
599.0,0.7218
600.0,0.7233
601.0,0.7178
602.0,0.7129
603.0,0.7249
604.0,0.737
605.0,0.7333
606.0,0.7305
607.0,0.738
608.0,0.73
609.0,0.7314
610.0,0.7264
611.0,0.7303
612.0,0.7283
613.0,0.7192
614.0,0.7096
615.0,0.7252
616.0,0.7015
617.0,0.7001
618.0,0.7272
619.0,0.7199
620.0,0.7244
621.0,0.725
622.0,0.7163
623.0,0.7053
624.0,0.6933
625.0,0.6918
626.0,0.702
627.0,0.7094
628.0,0.6573
629.0,0.6908
630.0,0.6747
631.0,0.6917
632.0,0.6838
633.0,0.7053
634.0,0.699
635.0,0.7102
636.0,0.7011
637.0,0.7129
638.0,0.7201
639.0,0.7122
640.0,0.7056
641.0,0.7053
642.0,0.7023
643.0,0.7118
644.0,0.7097
645.0,0.7107
646.0,0.6935
647.0,0.6839
648.0,0.6844
649.0,0.671
650.0,0.6761
651.0,0.7058
652.0,0.6745
653.0,0.6965
654.0,0.689
655.0,0.6623
656.0,0.5877
657.0,0.6036
658.0,0.677
659.0,0.6821
660.0,0.6851
661.0,0.6899
662.0,0.691
663.0,0.6775
664.0,0.686
665.0,0.687
666.0,0.6877
667.0,0.6872
668.0,0.6878
669.0,0.6985
670.0,0.6956
671.0,0.6955
672.0,0.6897
673.0,0.7001
674.0,0.6976
675.0,0.6913
676.0,0.6962
677.0,0.6893
678.0,0.6914
679.0,0.6803
680.0,0.6857
681.0,0.6812
682.0,0.6804
683.0,0.6791
684.0,0.6757
685.0,0.6816
686.0,0.6774
687.0,0.4271
688.0,0.5111
689.0,0.5133
690.0,0.542
691.0,0.5746
692.0,0.5989
693.0,0.5937
694.0,0.5889
695.0,0.616
696.0,0.617
697.0,0.6582
698.0,0.6479
699.0,0.6301
700.0,0.6224
701.0,0.6153
702.0,0.6204
703.0,0.6217
704.0,0.6429
705.0,0.6439
706.0,0.6439
707.0,0.6446
708.0,0.6459
709.0,0.6477
710.0,0.6472
711.0,0.6466
712.0,0.6451
713.0,0.6382
714.0,0.6407
715.0,0.6196
716.0,0.6197
717.0,0.5292
718.0,0.485
719.0,0.4435
720.0,0.4638
721.0,0.517
722.0,0.5969
723.0,0.5529
724.0,0.4949
725.0,0.4858
726.0,0.509
727.0,0.5183
728.0,0.4842
729.0,0.5053
730.0,0.5345
731.0,0.5106
732.0,0.5492
733.0,0.5844
734.0,0.5991
735.0,0.5862
736.0,0.5855
737.0,0.5878
738.0,0.5989
739.0,0.5871
740.0,0.603
741.0,0.5974
742.0,0.5983
743.0,0.6137
744.0,0.6122
745.0,0.6125
746.0,0.6153
747.0,0.6167
748.0,0.6154
749.0,0.6084
750.0,0.6081
751.0,0.6019
752.0,0.6045
753.0,0.6076
754.0,0.609
755.0,0.6055
756.0,0.6053
757.0,0.6062
758.0,0.5986
759.0,0.5852
760.0,0.07709
761.0,0.03715
762.0,0.2748
763.0,0.1247
764.0,0.1983
765.0,0.2747
766.0,0.3486
767.0,0.4518
768.0,0.5313
769.0,0.5447
770.0,0.5658
771.0,0.5715
772.0,0.5731
773.0,0.5772
774.0,0.5745
775.0,0.5702
776.0,0.5771
777.0,0.5695
778.0,0.5661
779.0,0.5665
780.0,0.5634
781.0,0.564
782.0,0.5675
783.0,0.5577
784.0,0.5604
785.0,0.5562
786.0,0.5622
787.0,0.5514
788.0,0.544
789.0,0.5437
790.0,0.5278
791.0,0.5338
792.0,0.5301
793.0,0.5213
794.0,0.5317
795.0,0.5403
796.0,0.5217
797.0,0.5223
798.0,0.5395
799.0,0.5356
800.0,0.5259
801.0,0.5238
802.0,0.5223
803.0,0.5181
804.0,0.519
805.0,0.5179
806.0,0.5335
807.0,0.5268
808.0,0.5274
809.0,0.5167
810.0,0.512
811.0,0.5116
812.0,0.4956
813.0,0.4845
814.0,0.422
815.0,0.4196
816.0,0.39
817.0,0.3976
818.0,0.3817
819.0,0.4305
820.0,0.404
821.0,0.4775
822.0,0.463
823.0,0.3066
824.0,0.4476
825.0,0.4691
826.0,0.4497
827.0,0.4762
828.0,0.3988
829.0,0.4473
830.0,0.4409
831.0,0.4426
832.0,0.4281
833.0,0.4579
834.0,0.4401
835.0,0.4871
836.0,0.4639
837.0,0.4886
838.0,0.4722
839.0,0.4814
840.0,0.4923
841.0,0.4848
842.0,0.4866
843.0,0.4872
844.0,0.4799
845.0,0.4968
846.0,0.4947
847.0,0.4857
848.0,0.4824
849.0,0.4687
850.0,0.4491
851.0,0.4751
852.0,0.4719
853.0,0.4545
854.0,0.3922
855.0,0.4313
856.0,0.4711
857.0,0.4819
858.0,0.4782
859.0,0.4788
860.0,0.4798
861.0,0.4771
862.0,0.4847
863.0,0.4961
864.0,0.4713
865.0,0.4673
866.0,0.4201
867.0,0.4385
868.0,0.4771
869.0,0.4673
870.0,0.4806
871.0,0.474
872.0,0.4724
873.0,0.4714
874.0,0.4658
875.0,0.4564
876.0,0.4611
877.0,0.4658
878.0,0.4708
879.0,0.4636
880.0,0.4536
881.0,0.4466
882.0,0.4562
883.0,0.4579
884.0,0.4557
885.0,0.4591
886.0,0.4369
887.0,0.442
888.0,0.4482
889.0,0.454
890.0,0.4494
891.0,0.449
892.0,0.4351
893.0,0.4203
894.0,0.4034
895.0,0.3783
896.0,0.3554
897.0,0.3018
898.0,0.3312
899.0,0.2478
900.0,0.3414
901.0,0.2598
902.0,0.3105
903.0,0.3117
904.0,0.4003
905.0,0.3854
906.0,0.3597
907.0,0.2868
908.0,0.2934
909.0,0.3202
910.0,0.2787
911.0,0.3
912.0,0.3144
913.0,0.2826
914.0,0.2811
915.0,0.3047
916.0,0.2569
917.0,0.3308
918.0,0.2632
919.0,0.3382
920.0,0.3444
921.0,0.3585
922.0,0.3171
923.0,0.3465
924.0,0.3245
925.0,0.3175
926.0,0.3207
927.0,0.3623
928.0,0.2563
929.0,0.2313
930.0,0.1777
931.0,0.1688
932.0,0.1173
933.0,0.0932
934.0,0.04668
935.0,0.09712
936.0,0.05779
937.0,0.0583
938.0,0.07279
939.0,0.1635
940.0,0.1998
941.0,0.1467
942.0,0.1723
943.0,0.1101
944.0,0.119
945.0,0.1521
946.0,0.07307
947.0,0.1516
948.0,0.1108
949.0,0.2072
950.0,0.05122
951.0,0.2048
952.0,0.1044
953.0,0.1386
954.0,0.1741
955.0,0.1406
956.0,0.1394
957.0,0.1041
958.0,0.203
959.0,0.1564
960.0,0.1754
961.0,0.2006
962.0,0.1894
963.0,0.2217
964.0,0.202
965.0,0.2211
966.0,0.2204
967.0,0.2191
968.0,0.3058
969.0,0.3181
970.0,0.2907
971.0,0.3381
972.0,0.3224
973.0,0.2753
974.0,0.2606
975.0,0.2726
976.0,0.2559
977.0,0.297
978.0,0.2797
979.0,0.2946
980.0,0.276
981.0,0.3363
982.0,0.3196
983.0,0.3057
984.0,0.3488
985.0,0.3184
986.0,0.3564
987.0,0.3477
988.0,0.3472
989.0,0.3562
990.0,0.3451
991.0,0.3571
992.0,0.3593
993.0,0.3497
994.0,0.3593
995.0,0.3591
996.0,0.3573
997.0,0.3579
998.0,0.3562
999.0,0.3549
1000.0,0.352
1001.0,0.3569
1002.0,0.3455
1003.0,0.3505
1004.0,0.3415
1005.0,0.3295
1006.0,0.3421
1007.0,0.3495
1008.0,0.3474
1009.0,0.3452
1010.0,0.3436
1011.0,0.3478
1012.0,0.3445
1013.0,0.347
1014.0,0.3446
1015.0,0.3423
1016.0,0.3407
1017.0,0.3415
1018.0,0.3404
1019.0,0.3326
1020.0,0.3385
1021.0,0.3382
1022.0,0.3353
1023.0,0.3388
1024.0,0.3338
1025.0,0.3388
1026.0,0.3372
1027.0,0.3365
1028.0,0.3357
1029.0,0.3317
1030.0,0.3342
1031.0,0.3327
1032.0,0.3318
1033.0,0.3268
1034.0,0.3269
1035.0,0.3279
1036.0,0.3295
1037.0,0.3242
1038.0,0.3256
1039.0,0.3254
1040.0,0.324
1041.0,0.3253
1042.0,0.323
1043.0,0.322
1044.0,0.323
1045.0,0.3186
1046.0,0.3151
1047.0,0.3179
1048.0,0.3196
1049.0,0.3184
1050.0,0.3168
1051.0,0.3163
1052.0,0.315
1053.0,0.3124
1054.0,0.313
1055.0,0.3131
1056.0,0.3119
1057.0,0.3109
1058.0,0.3031
1059.0,0.3034
1060.0,0.3028
1061.0,0.3024
1062.0,0.3039
1063.0,0.3008
1064.0,0.3044
1065.0,0.302
1066.0,0.2962
1067.0,0.3
1068.0,0.2933
1069.0,0.2843
1070.0,0.2938
1071.0,0.2989
1072.0,0.2951
1073.0,0.2909
1074.0,0.299
1075.0,0.2824
1076.0,0.2987
1077.0,0.2924
1078.0,0.2865
1079.0,0.2942
1080.0,0.288
1081.0,0.2779
1082.0,0.2838
1083.0,0.285
1084.0,0.2769
1085.0,0.2888
1086.0,0.2612
1087.0,0.2712
1088.0,0.2844
1089.0,0.2742
1090.0,0.2672
1091.0,0.2831
1092.0,0.2827
1093.0,0.2353
1094.0,0.2581
1095.0,0.2456
1096.0,0.2339
1097.0,0.2762
1098.0,0.2297
1099.0,0.2403
1100.0,0.2215
1101.0,0.2249
1102.0,0.2136
1103.0,0.2107
1104.0,0.2111
1105.0,0.2344
1106.0,0.1721
1107.0,0.2212
1108.0,0.1832
1109.0,0.1844
1110.0,0.2186
1111.0,0.1426
1112.0,0.1833
1113.0,0.1109
1114.0,0.1244
1115.0,0.1029
1116.0,0.07876
1117.0,0.02551
1118.0,0.08676
1119.0,0.04016
1120.0,0.05028
1121.0,0.06843
1122.0,0.02636
1123.0,0.04557
1124.0,0.03842
1125.0,0.05083
1126.0,0.01533
1127.0,0.05757
1128.0,0.03181
1129.0,0.03408
1130.0,0.02158
1131.0,0.1158
1132.0,0.08957
1133.0,0.05318
1134.0,0.01176
1135.0,0.00452
1136.0,0.04312
1137.0,0.1125
1138.0,0.07856
1139.0,0.1244
1140.0,0.1012
1141.0,0.07472
1142.0,0.08737
1143.0,0.1271
1144.0,0.04103
1145.0,0.05135
1146.0,0.05534
1147.0,0.01706
1148.0,0.1098
1149.0,0.08555
1150.0,0.04457
1151.0,0.07792
1152.0,0.09843
1153.0,0.09786
1154.0,0.04956
1155.0,0.1296
1156.0,0.1153
1157.0,0.1318
1158.0,0.1303
1159.0,0.1423
1160.0,0.1199
1161.0,0.1516
1162.0,0.152
1163.0,0.2118
1164.0,0.1793
1165.0,0.1669
1166.0,0.1675
1167.0,0.1835
1168.0,0.185
1169.0,0.1902
1170.0,0.2086
1171.0,0.2032
1172.0,0.208
1173.0,0.2082
1174.0,0.1441
1175.0,0.2043
1176.0,0.2269
1177.0,0.2163
1178.0,0.1591
1179.0,0.2288
1180.0,0.2017
1181.0,0.2083
1182.0,0.1401
1183.0,0.2057
1184.0,0.1915
1185.0,0.1837
1186.0,0.2214
1187.0,0.2098
1188.0,0.1419
1189.0,0.1952
1190.0,0.2165
1191.0,0.2035
1192.0,0.2198
1193.0,0.2099
1194.0,0.2168
1195.0,0.2036
1196.0,0.1953
1197.0,0.2176
1198.0,0.1982
1199.0,0.1656
1200.0,0.2072
1201.0,0.1987
1202.0,0.1984
1203.0,0.1964
1204.0,0.1703
1205.0,0.2038
1206.0,0.2267
1207.0,0.1975
1208.0,0.1953
1209.0,0.1995
1210.0,0.2085
1211.0,0.1975
1212.0,0.1936
1213.0,0.2186
1214.0,0.1989
1215.0,0.1949
1216.0,0.218
1217.0,0.2117
1218.0,0.2162
1219.0,0.2132
1220.0,0.2164
1221.0,0.2189
1222.0,0.2129
1223.0,0.2107
1224.0,0.2089
1225.0,0.2174
1226.0,0.2193
1227.0,0.2008
1228.0,0.2207
1229.0,0.2193
1230.0,0.2153
1231.0,0.2224
1232.0,0.221
1233.0,0.2122
1234.0,0.2224
1235.0,0.2208
1236.0,0.2226
1237.0,0.219
1238.0,0.2219
1239.0,0.219
1240.0,0.2199
1241.0,0.2185
1242.0,0.2183
1243.0,0.2166
1244.0,0.218
1245.0,0.219
1246.0,0.2178
1247.0,0.2168
1248.0,0.2165
1249.0,0.2173
1250.0,0.2159
1251.0,0.213
1252.0,0.2132
1253.0,0.2111
1254.0,0.2087
1255.0,0.2129
1256.0,0.2062
1257.0,0.2049
1258.0,0.2093
1259.0,0.2005
1260.0,0.2017
1261.0,0.1889
1262.0,0.1824
1263.0,0.1827
1264.0,0.1668
1265.0,0.1816
1266.0,0.1736
1267.0,0.1774
1268.0,0.1671
1269.0,0.096
1270.0,0.1765
1271.0,0.1884
1272.0,0.1892
1273.0,0.187
1274.0,0.1879
1275.0,0.1909
1276.0,0.193
1277.0,0.1947
1278.0,0.199
1279.0,0.1972
1280.0,0.1947
1281.0,0.1861
1282.0,0.1798
1283.0,0.1935
1284.0,0.1981
1285.0,0.1994
1286.0,0.2024
1287.0,0.1988
1288.0,0.1989
1289.0,0.1917
1290.0,0.1972
1291.0,0.2001
1292.0,0.1863
1293.0,0.1958
1294.0,0.1943
1295.0,0.1929
1296.0,0.183
1297.0,0.1723
1298.0,0.1872
1299.0,0.1962
1300.0,0.1631
1301.0,0.1687
1302.0,0.1867
1303.0,0.1613
1304.0,0.1348
1305.0,0.1826
1306.0,0.1824
1307.0,0.1387
1308.0,0.162
1309.0,0.1807
1310.0,0.1359
1311.0,0.1547
1312.0,0.1501
1313.0,0.1466
1314.0,0.1303
1315.0,0.1279
1316.0,0.1517
1317.0,0.1434
1318.0,0.157
1319.0,0.1193
1320.0,0.1164
1321.0,0.1367
1322.0,0.1375
1323.0,0.1006
1324.0,0.1171
1325.0,0.1493
1326.0,0.1264
1327.0,0.12
1328.0,0.1026
1329.0,0.07451
1330.0,0.09828
1331.0,0.05639
1332.0,0.05919
1333.0,0.08302
1334.0,0.07193
1335.0,0.1001
1336.0,0.0776
1337.0,0.0679
1338.0,0.07342
1339.0,0.07353
1340.0,0.07235
1341.0,0.06871
1342.0,0.07236
1343.0,0.04534
1344.0,0.02744
1345.0,0.03962
1346.0,0.01753
1347.0,0.01745
1348.0,0.0008723
1349.0,0.003365
1350.0,0.003677
1351.0,0.0007049
1352.0,0.0001447
1353.0,5.678e-06
1354.0,2.351e-05
1355.0,1.072e-07
1356.0,2.732e-06
1357.0,4.18e-06
1358.0,1.3e-07
1359.0,1.056e-08
1360.0,5.089e-08
1361.0,2.305e-11
1362.0,4.428e-14
1363.0,5.879e-08
1364.0,2.438e-08
1365.0,9.516e-15
1366.0,2.884e-07
1367.0,1.308e-07
1368.0,3.056e-17
1369.0,8.968e-09
1370.0,3.675e-09
1371.0,1.69e-10
1372.0,7.248e-08
1373.0,1.951e-06
1374.0,1.109e-05
1375.0,1.968e-05
1376.0,2.142e-05
1377.0,9.413e-06
1378.0,9.91e-05
1379.0,3.95e-06
1380.0,4.984e-06
1381.0,1.174e-07
1382.0,6.191e-08
1383.0,8.043e-10
1384.0,9.374e-09
1385.0,7.281e-08
1386.0,4.825e-08
1387.0,1.001e-05
1388.0,2.043e-07
1389.0,4.304e-05
1390.0,3.665e-05
1391.0,2.364e-05
1392.0,1.463e-06
1393.0,8.623e-06
1394.0,3.166e-06
1395.0,1.894e-08
1396.0,3.758e-11
1397.0,3.175e-06
1398.0,0.0001084
1399.0,6.946e-05
1400.0,1.271e-11
1401.0,7.377e-11
1402.0,0.0002604
1403.0,0.0003087
1404.0,9.161e-05
1405.0,7.862e-09
1406.0,0.0002157
1407.0,2.092e-05
1408.0,0.0001799
1409.0,5.114e-05
1410.0,4.641e-05
1411.0,0.0002748
1412.0,0.0004016
1413.0,0.005182
1414.0,3.747e-05
1415.0,1.669e-05
1416.0,0.009948
1417.0,0.002576
1418.0,0.002821
1419.0,0.0004216
1420.0,0.001713
1421.0,0.001886
1422.0,0.01306
1423.0,0.002427
1424.0,0.004682
1425.0,0.006644
1426.0,0.008105
1427.0,0.01615
1428.0,0.0007991
1429.0,0.01142
1430.0,0.02119
1431.0,0.02371
1432.0,0.0006217
1433.0,0.0145
1434.0,0.007089
1435.0,0.006133
1436.0,0.01328
