interpolation:linear
wavelength,value
280.0,2.962e-22
280.5,9.732e-21
281.0,5.2160000000000003e-20
281.5,4.08e-19
282.0,6.718e-19
282.5,1.667e-18
283.0,5.272e-18
283.5,8.582e-18
284.0,1.413e-16
284.5,4.12e-16
285.0,6.807e-16
285.5,3.398e-15
286.0,1.37e-14
286.5,6.172e-14
287.0,1.771e-13
287.5,6.827e-13
288.0,2.356e-12
288.5,7.102e-12
289.0,1.887e-11
289.5,5.69e-11
290.0,1.578e-10
290.5,3.216e-10
291.0,6.901e-10
291.5,1.981e-09
292.0,4.005e-09
292.5,5.632e-09
293.0,1.211e-08
293.5,2.957e-08
294.0,4.633e-08
294.5,6.349e-08
295.0,1.078e-07
295.5,1.82e-07
296.0,3.548e-07
296.5,5.02e-07
297.0,6.863e-07
297.5,1.875e-06
298.0,3.01e-06
298.5,3.076e-06
299.0,6.897e-06
299.5,1.185e-05
300.0,1.332e-05
300.5,1.975e-05
301.0,3.728e-05
301.5,6.191e-05
302.0,5.412e-05
302.5,0.0001092
303.0,0.0002057
303.5,0.0002688
304.0,0.0002617
304.5,0.0004295
305.0,0.0007469
305.5,0.0009348
306.0,0.0009367
306.5,0.001237
307.0,0.002091
307.5,0.003162
308.0,0.003411
308.5,0.004298
309.0,0.004379
309.5,0.005524
310.0,0.005803
310.5,0.009609
311.0,0.01251
311.5,0.01226
312.0,0.01326
312.5,0.01698
313.0,0.01892
313.5,0.01792
314.0,0.02382
314.5,0.0229
315.0,0.03053
315.5,0.02457
316.0,0.0229
316.5,0.03478
317.0,0.04314
317.5,0.04419
318.0,0.03582
318.5,0.04783
319.0,0.05887
319.5,0.04526
320.0,0.05421
320.5,0.07306
321.0,0.06951
321.5,0.0671
322.0,0.06663
322.5,0.05818
323.0,0.0607
323.5,0.07789
324.0,0.09161
324.5,0.09129
325.0,0.07704
325.5,0.1029
326.0,0.1272
326.5,0.1305
327.0,0.1289
327.5,0.1232
328.0,0.1062
328.5,0.1161
329.0,0.1434
329.5,0.1644
330.0,0.1646
330.5,0.1287
331.0,0.1301
331.5,0.1346
332.0,0.1493
332.5,0.1494
333.0,0.1481
333.5,0.1315
334.0,0.1344
334.5,0.1585
335.0,0.1509
335.5,0.1767
336.0,0.1223
336.5,0.1421
337.0,0.1155
337.5,0.1433
338.0,0.1425
338.5,0.1653
339.0,0.1638
339.5,0.1576
340.0,0.1845
340.5,0.1667
341.0,0.1631
341.5,0.1501
342.0,0.1796
342.5,0.1682
343.0,0.1848
343.5,0.174
344.0,0.1282
344.5,0.1298
345.0,0.1723
345.5,0.1762
346.0,0.1499
346.5,0.17
347.0,0.1824
347.5,0.1475
348.0,0.1684
348.5,0.1686
349.0,0.1566
349.5,0.1551
350.0,0.192
350.5,0.2026
351.0,0.181
351.5,0.1757
352.0,0.189
352.5,0.1477
353.0,0.1863
353.5,0.1994
354.0,0.2072
354.5,0.2102
355.0,0.2095
355.5,0.1895
356.0,0.1984
356.5,0.1695
357.0,0.1401
357.5,0.1716
358.0,0.1361
358.5,0.1163
359.0,0.1628
359.5,0.2074
360.0,0.22
360.5,0.176
361.0,0.1606
361.5,0.1851
362.0,0.1603
362.5,0.2221
363.0,0.1997
363.5,0.1841
364.0,0.2253
364.5,0.1927
365.0,0.1964
365.5,0.2467
366.0,0.2616
366.5,0.246
367.0,0.2398
367.5,0.249
368.0,0.218
368.5,0.2201
369.0,0.2379
369.5,0.2538
370.0,0.2707
370.5,0.2103
371.0,0.2249
371.5,0.2815
372.0,0.1869
372.5,0.2243
373.0,0.2284
373.5,0.1487
374.0,0.2162
374.5,0.1792
375.0,0.1743
375.5,0.2604
376.0,0.216
376.5,0.2239
377.0,0.2373
377.5,0.2778
378.0,0.3012
378.5,0.2848
379.0,0.2352
379.5,0.2149
380.0,0.2235
380.5,0.271
381.0,0.2718
381.5,0.2157
382.0,0.1917
382.5,0.1636
383.0,0.1516
383.5,0.1462
384.0,0.1613
384.5,0.2375
385.0,0.2357
385.5,0.2197
386.0,0.1883
386.5,0.2475
387.0,0.2058
387.5,0.2313
388.0,0.2137
388.5,0.2114
389.0,0.2283
389.5,0.2768
390.0,0.278
390.5,0.256
391.0,0.3016
391.5,0.3077
392.0,0.2594
392.5,0.2324
393.0,0.1294
393.5,0.09415
394.0,0.1917
394.5,0.2439
395.0,0.2978
395.5,0.3027
396.0,0.2626
396.5,0.1537
397.0,0.1154
397.5,0.2348
398.0,0.329
398.5,0.3402
399.0,0.3688
399.5,0.3679
400.0,0.3821
401.0,0.3854
402.0,0.4073
403.0,0.3875
404.0,0.382
405.0,0.3823
406.0,0.3767
407.0,0.3712
408.0,0.3859
409.0,0.4135
410.0,0.3618
411.0,0.3924
412.0,0.4222
413.0,0.412
414.0,0.4176
415.0,0.4193
416.0,0.4273
417.0,0.4172
418.0,0.4099
419.0,0.4157
420.0,0.4143
421.0,0.4339
422.0,0.4128
423.0,0.4036
424.0,0.4272
425.0,0.4269
426.0,0.4166
427.0,0.4091
428.0,0.3988
429.0,0.3784
430.0,0.3316
431.0,0.3287
432.0,0.425
433.0,0.4278
434.0,0.3974
435.0,0.4152
436.0,0.4686
437.0,0.463
438.0,0.4221
439.0,0.4361
440.0,0.4505
441.0,0.4674
442.0,0.5016
443.0,0.4885
444.0,0.4997
445.0,0.489
446.0,0.4675
447.0,0.5062
448.0,0.5139
449.0,0.5169
450.0,0.5318
451.0,0.5519
452.0,0.5322
453.0,0.501
454.0,0.5236
455.0,0.527
456.0,0.5399
457.0,0.549
458.0,0.53
459.0,0.5275
460.0,0.5288
461.0,0.5412
462.0,0.546
463.0,0.5423
464.0,0.5343
465.0,0.5284
466.0,0.5342
467.0,0.5243
468.0,0.5306
469.0,0.5334
470.0,0.5164
471.0,0.516
472.0,0.5437
473.0,0.5367
474.0,0.537
475.0,0.541
476.0,0.5241
477.0,0.525
478.0,0.5399
479.0,0.5371
480.0,0.5386
481.0,0.5493
482.0,0.553
483.0,0.5472
484.0,0.5365
485.0,0.5118
486.0,0.448
487.0,0.47
488.0,0.5157
489.0,0.5171
490.0,0.5444
491.0,0.5354
492.0,0.5057
493.0,0.5224
494.0,0.5278
495.0,0.5324
496.0,0.5357
497.0,0.5439
498.0,0.5184
499.0,0.5247
500.0,0.509
501.0,0.4992
502.0,0.4912
503.0,0.5101
504.0,0.4942
505.0,0.5143
506.0,0.5309
507.0,0.5054
508.0,0.4905
509.0,0.505
510.0,0.503
511.0,0.5171
512.0,0.5231
513.0,0.4952
514.0,0.4921
515.0,0.4872
516.0,0.4859
517.0,0.4319
518.0,0.454
519.0,0.4762
520.0,0.4934
521.0,0.498
522.0,0.4981
523.0,0.489
524.0,0.5059
525.0,0.5111
526.0,0.488
527.0,0.4592
528.0,0.4852
529.0,0.511
530.0,0.5034
531.0,0.5106
532.0,0.4929
533.0,0.4785
534.0,0.4929
535.0,0.504
536.0,0.509
537.0,0.4892
538.0,0.498
539.0,0.4938
540.0,0.4733
541.0,0.4755
542.0,0.49
543.0,0.4855
544.0,0.4932
545.0,0.4918
546.0,0.4933
547.0,0.4937
548.0,0.4881
549.0,0.4898
550.0,0.4957
551.0,0.4898
552.0,0.4932
553.0,0.4843
554.0,0.4958
555.0,0.4965
556.0,0.4899
557.0,0.4744
558.0,0.4704
559.0,0.4611
560.0,0.4666
561.0,0.4722
562.0,0.4682
563.0,0.4803
564.0,0.4667
565.0,0.4622
566.0,0.455
567.0,0.463
568.0,0.4573
569.0,0.4435
570.0,0.4437
571.0,0.4418
572.0,0.4504
573.0,0.4549
574.0,0.453
575.0,0.4438
576.0,0.4398
577.0,0.4449
578.0,0.4391
579.0,0.4422
580.0,0.4528
581.0,0.4568
582.0,0.467
583.0,0.4693
584.0,0.4742
585.0,0.4631
586.0,0.4537
587.0,0.4627
588.0,0.4477
589.0,0.3895
590.0,0.4079
591.0,0.4359
592.0,0.4279
593.0,0.4375
594.0,0.4331
595.0,0.4197
596.0,0.4422
597.0,0.4359
598.0,0.4366
599.0,0.4377
600.0,0.4399
601.0,0.4374
602.0,0.4347
603.0,0.4424
604.0,0.4501
605.0,0.4481
606.0,0.4469
607.0,0.4521
608.0,0.4477
609.0,0.4491
610.0,0.4465
611.0,0.4492
612.0,0.4483
613.0,0.443
614.0,0.4375
615.0,0.4476
616.0,0.4333
617.0,0.4328
618.0,0.4498
619.0,0.4454
620.0,0.4482
621.0,0.4482
622.0,0.4425
623.0,0.4354
624.0,0.4283
625.0,0.4274
626.0,0.4335
627.0,0.437
628.0,0.3914
629.0,0.4208
630.0,0.4105
631.0,0.4255
632.0,0.4215
633.0,0.4367
634.0,0.4343
635.0,0.442
636.0,0.4373
637.0,0.4453
638.0,0.4509
639.0,0.4465
640.0,0.443
641.0,0.4433
642.0,0.442
643.0,0.4481
644.0,0.4473
645.0,0.4477
646.0,0.4352
647.0,0.4254
648.0,0.4259
649.0,0.417
650.0,0.4251
651.0,0.4446
652.0,0.4201
653.0,0.439
654.0,0.4346
655.0,0.4154
656.0,0.3703
657.0,0.3806
658.0,0.4285
659.0,0.4323
660.0,0.4346
661.0,0.4378
662.0,0.4376
663.0,0.4294
664.0,0.4362
665.0,0.4378
666.0,0.4387
667.0,0.439
668.0,0.4399
669.0,0.4471
670.0,0.4455
671.0,0.4457
672.0,0.4421
673.0,0.4491
674.0,0.4477
675.0,0.4439
676.0,0.4472
677.0,0.443
678.0,0.4445
679.0,0.4376
680.0,0.4412
681.0,0.4384
682.0,0.4379
683.0,0.4371
684.0,0.4349
685.0,0.4389
686.0,0.436
687.0,0.2206
688.0,0.2883
689.0,0.2904
690.0,0.3156
691.0,0.3451
692.0,0.3684
693.0,0.3647
694.0,0.363
695.0,0.3869
696.0,0.388
697.0,0.4219
698.0,0.4152
699.0,0.3982
700.0,0.3931
701.0,0.3863
702.0,0.3918
703.0,0.3931
704.0,0.41
705.0,0.4105
706.0,0.4118
707.0,0.4128
708.0,0.4135
709.0,0.4169
710.0,0.4154
711.0,0.4159
712.0,0.416
713.0,0.4105
714.0,0.4124
715.0,0.3965
716.0,0.396
717.0,0.3181
718.0,0.2899
719.0,0.2636
720.0,0.2735
721.0,0.3164
722.0,0.3777
723.0,0.3438
724.0,0.3002
725.0,0.2923
726.0,0.3068
727.0,0.3176
728.0,0.2904
729.0,0.3101
730.0,0.3263
731.0,0.3105
732.0,0.3415
733.0,0.37
734.0,0.3816
735.0,0.3722
736.0,0.3714
737.0,0.3729
738.0,0.3854
739.0,0.378
740.0,0.3898
741.0,0.3872
742.0,0.3888
743.0,0.3991
744.0,0.3988
745.0,0.3995
746.0,0.4013
747.0,0.4024
748.0,0.4016
749.0,0.3971
750.0,0.3969
751.0,0.3929
752.0,0.3947
753.0,0.3968
754.0,0.3977
755.0,0.3954
756.0,0.3953
757.0,0.3959
758.0,0.3908
759.0,0.3785
760.0,0.01984
761.0,0.007141
762.0,0.1256
763.0,0.03948
764.0,0.07747
765.0,0.1254
766.0,0.1814
767.0,0.2617
768.0,0.3318
769.0,0.3459
770.0,0.3659
771.0,0.3725
772.0,0.3745
773.0,0.3774
774.0,0.3758
775.0,0.3732
776.0,0.3778
777.0,0.3729
778.0,0.3706
779.0,0.3709
780.0,0.3689
781.0,0.3693
782.0,0.3717
783.0,0.3653
784.0,0.3672
785.0,0.3642
786.0,0.368
787.0,0.3582
788.0,0.3522
789.0,0.3519
790.0,0.3381
791.0,0.3455
792.0,0.3436
793.0,0.3376
794.0,0.3479
795.0,0.3526
796.0,0.3355
797.0,0.3354
798.0,0.3514
799.0,0.348
800.0,0.3405
801.0,0.3379
802.0,0.3369
803.0,0.3335
804.0,0.3347
805.0,0.3355
806.0,0.3481
807.0,0.3432
808.0,0.3438
809.0,0.3349
810.0,0.3307
811.0,0.3278
812.0,0.3141
813.0,0.3058
814.0,0.2572
815.0,0.2564
816.0,0.2372
817.0,0.2423
818.0,0.2305
819.0,0.2678
820.0,0.2486
821.0,0.3056
822.0,0.2945
823.0,0.1779
824.0,0.2802
825.0,0.3003
826.0,0.284
827.0,0.3047
828.0,0.244
829.0,0.2833
830.0,0.2785
831.0,0.2795
832.0,0.2684
833.0,0.2921
834.0,0.2773
835.0,0.3152
836.0,0.2945
837.0,0.3163
838.0,0.3028
839.0,0.3121
840.0,0.3198
841.0,0.3138
842.0,0.3168
843.0,0.3192
844.0,0.3134
845.0,0.3258
846.0,0.3248
847.0,0.3195
848.0,0.3164
849.0,0.3074
850.0,0.2946
851.0,0.3107
852.0,0.3091
853.0,0.2985
854.0,0.2569
855.0,0.2834
856.0,0.3092
857.0,0.3169
858.0,0.3142
859.0,0.315
860.0,0.3159
861.0,0.3141
862.0,0.3192
863.0,0.3267
864.0,0.3105
865.0,0.3078
866.0,0.2768
867.0,0.2889
868.0,0.3144
869.0,0.3079
870.0,0.3168
871.0,0.3124
872.0,0.3114
873.0,0.3108
874.0,0.3071
875.0,0.3008
876.0,0.3039
877.0,0.307
878.0,0.3102
879.0,0.3055
880.0,0.2989
881.0,0.2939
882.0,0.3
883.0,0.3016
884.0,0.2999
885.0,0.3022
886.0,0.286
887.0,0.2906
888.0,0.294
889.0,0.299
890.0,0.2944
891.0,0.295
892.0,0.2837
893.0,0.2722
894.0,0.2567
895.0,0.2354
896.0,0.2198
897.0,0.1806
898.0,0.2011
899.0,0.1438
900.0,0.2113
901.0,0.1507
902.0,0.1891
903.0,0.1865
904.0,0.2547
905.0,0.2433
906.0,0.2254
907.0,0.1697
908.0,0.1758
909.0,0.1956
910.0,0.1629
911.0,0.1812
912.0,0.1901
913.0,0.1648
914.0,0.1655
915.0,0.1786
916.0,0.1498
917.0,0.1999
918.0,0.1527
919.0,0.207
920.0,0.2166
921.0,0.2249
922.0,0.1936
923.0,0.218
924.0,0.1964
925.0,0.1927
926.0,0.1935
927.0,0.2239
928.0,0.1434
929.0,0.1255
930.0,0.09019
931.0,0.08565
932.0,0.05349
933.0,0.04006
934.0,0.0154
935.0,0.04366
936.0,0.02277
937.0,0.02289
938.0,0.02971
939.0,0.08277
940.0,0.1058
941.0,0.07203
942.0,0.08744
943.0,0.05166
944.0,0.06034
945.0,0.076
946.0,0.03105
947.0,0.07422
948.0,0.05379
949.0,0.1071
950.0,0.01961
951.0,0.1065
952.0,0.04768
953.0,0.06789
954.0,0.09054
955.0,0.06946
956.0,0.07475
957.0,0.04723
958.0,0.1142
959.0,0.08142
960.0,0.09128
961.0,0.1099
962.0,0.1035
963.0,0.1259
964.0,0.1135
965.0,0.1253
966.0,0.1244
967.0,0.1229
968.0,0.191
969.0,0.1956
970.0,0.1773
971.0,0.2145
972.0,0.2026
973.0,0.1647
974.0,0.1554
975.0,0.1651
976.0,0.1502
977.0,0.1846
978.0,0.1697
979.0,0.181
980.0,0.1685
981.0,0.2136
982.0,0.1998
983.0,0.1895
984.0,0.2255
985.0,0.1989
986.0,0.2328
987.0,0.2244
988.0,0.2243
989.0,0.2344
990.0,0.2228
991.0,0.2347
992.0,0.2364
993.0,0.2273
994.0,0.2368
995.0,0.2371
996.0,0.2354
997.0,0.236
998.0,0.2347
999.0,0.234
1000.0,0.2314
1001.0,0.2354
1002.0,0.225
1003.0,0.231
1004.0,0.2243
1005.0,0.2175
1006.0,0.2253
1007.0,0.2304
1008.0,0.2285
1009.0,0.2265
1010.0,0.2252
1011.0,0.2293
1012.0,0.2266
1013.0,0.229
1014.0,0.2274
1015.0,0.2258
1016.0,0.2247
1017.0,0.2251
1018.0,0.2247
1019.0,0.2185
1020.0,0.2233
1021.0,0.2233
1022.0,0.221
1023.0,0.2233
1024.0,0.2188
1025.0,0.2236
1026.0,0.2223
1027.0,0.2218
1028.0,0.2212
1029.0,0.2185
1030.0,0.2205
1031.0,0.2194
1032.0,0.2189
1033.0,0.2156
1034.0,0.2157
1035.0,0.2164
1036.0,0.2173
1037.0,0.2138
1038.0,0.2147
1039.0,0.2145
1040.0,0.2136
1041.0,0.2143
1042.0,0.2128
1043.0,0.2121
1044.0,0.2127
1045.0,0.2097
1046.0,0.2073
1047.0,0.2091
1048.0,0.2101
1049.0,0.2092
1050.0,0.2081
1051.0,0.2077
1052.0,0.2067
1053.0,0.2049
1054.0,0.2051
1055.0,0.205
1056.0,0.204
1057.0,0.2032
1058.0,0.198
1059.0,0.1979
1060.0,0.1975
1061.0,0.1971
1062.0,0.1979
1063.0,0.1958
1064.0,0.1982
1065.0,0.1962
1066.0,0.1928
1067.0,0.1951
1068.0,0.1904
1069.0,0.1849
1070.0,0.1908
1071.0,0.1951
1072.0,0.1918
1073.0,0.1892
1074.0,0.1956
1075.0,0.182
1076.0,0.1953
1077.0,0.1897
1078.0,0.185
1079.0,0.1928
1080.0,0.1868
1081.0,0.1788
1082.0,0.185
1083.0,0.1865
1084.0,0.1777
1085.0,0.1875
1086.0,0.1661
1087.0,0.1748
1088.0,0.1857
1089.0,0.1762
1090.0,0.1705
1091.0,0.1841
1092.0,0.1843
1093.0,0.1466
1094.0,0.1674
1095.0,0.1532
1096.0,0.1441
1097.0,0.1801
1098.0,0.1404
1099.0,0.1479
1100.0,0.1338
1101.0,0.1368
1102.0,0.128
1103.0,0.1249
1104.0,0.1253
1105.0,0.1437
1106.0,0.09502
1107.0,0.1337
1108.0,0.1045
1109.0,0.1062
1110.0,0.1307
1111.0,0.07699
1112.0,0.1059
1113.0,0.0564
1114.0,0.06352
1115.0,0.05182
1116.0,0.03574
1117.0,0.008455
1118.0,0.04021
1119.0,0.01556
1120.0,0.01895
1121.0,0.02738
1122.0,0.008252
1123.0,0.01731
1124.0,0.01454
1125.0,0.02007
1126.0,0.004028
1127.0,0.02293
1128.0,0.0102
1129.0,0.01115
1130.0,0.006704
1131.0,0.05379
1132.0,0.04011
1133.0,0.01997
1134.0,0.003025
1135.0,0.001272
1136.0,0.01491
1137.0,0.05066
1138.0,0.03466
1139.0,0.06432
1140.0,0.04884
1141.0,0.0331
1142.0,0.0403
1143.0,0.06284
1144.0,0.0166
1145.0,0.01924
1146.0,0.0207
1147.0,0.00443
1148.0,0.05361
1149.0,0.03934
1150.0,0.01898
1151.0,0.03439
1152.0,0.04649
1153.0,0.04869
1154.0,0.01896
1155.0,0.06692
1156.0,0.05762
1157.0,0.07012
1158.0,0.06915
1159.0,0.07738
1160.0,0.06384
1161.0,0.08603
1162.0,0.08567
1163.0,0.1295
1164.0,0.1062
1165.0,0.09523
1166.0,0.09868
1167.0,0.1098
1168.0,0.1099
1169.0,0.1139
1170.0,0.1281
1171.0,0.1247
1172.0,0.1299
1173.0,0.1279
1174.0,0.08172
1175.0,0.1275
1176.0,0.1461
1177.0,0.1362
1178.0,0.09493
1179.0,0.1473
1180.0,0.1252
1181.0,0.1294
1182.0,0.08095
1183.0,0.1287
1184.0,0.1178
1185.0,0.111
1186.0,0.1404
1187.0,0.1309
1188.0,0.08079
1189.0,0.1215
1190.0,0.1378
1191.0,0.1252
1192.0,0.1403
1193.0,0.1325
1194.0,0.1379
1195.0,0.1265
1196.0,0.1198
1197.0,0.1395
1198.0,0.1259
1199.0,0.09925
1200.0,0.1307
1201.0,0.1232
1202.0,0.1249
1203.0,0.1224
1204.0,0.1038
1205.0,0.13
1206.0,0.1474
1207.0,0.1234
1208.0,0.1239
1209.0,0.1269
1210.0,0.134
1211.0,0.1248
1212.0,0.1189
1213.0,0.1405
1214.0,0.1234
1215.0,0.1206
1216.0,0.1405
1217.0,0.1353
1218.0,0.1392
1219.0,0.1366
1220.0,0.1395
1221.0,0.1418
1222.0,0.1375
1223.0,0.1355
1224.0,0.1331
1225.0,0.1406
1226.0,0.1428
1227.0,0.1276
1228.0,0.1444
1229.0,0.1428
1230.0,0.1396
1231.0,0.1463
1232.0,0.1453
1233.0,0.1367
1234.0,0.1469
1235.0,0.1455
1236.0,0.147
1237.0,0.1434
1238.0,0.1465
1239.0,0.1446
1240.0,0.1453
1241.0,0.1437
1242.0,0.1442
1243.0,0.1431
1244.0,0.1438
1245.0,0.1446
1246.0,0.1438
1247.0,0.143
1248.0,0.1424
1249.0,0.1433
1250.0,0.1421
1251.0,0.1397
1252.0,0.1405
1253.0,0.138
1254.0,0.1357
1255.0,0.14
1256.0,0.1336
1257.0,0.1324
1258.0,0.1368
1259.0,0.1281
1260.0,0.1293
1261.0,0.1175
1262.0,0.1116
1263.0,0.1117
1264.0,0.09792
1265.0,0.1111
1266.0,0.1038
1267.0,0.1078
1268.0,0.0988
1269.0,0.04291
1270.0,0.1065
1271.0,0.1177
1272.0,0.1185
1273.0,0.1168
1274.0,0.1178
1275.0,0.1204
1276.0,0.1224
1277.0,0.1244
1278.0,0.1286
1279.0,0.1273
1280.0,0.1259
1281.0,0.1209
1282.0,0.1179
1283.0,0.1267
1284.0,0.1295
1285.0,0.1306
1286.0,0.1331
1287.0,0.1296
1288.0,0.1301
1289.0,0.1231
1290.0,0.1291
1291.0,0.1314
1292.0,0.1183
1293.0,0.1276
1294.0,0.1265
1295.0,0.1242
1296.0,0.1155
1297.0,0.107
1298.0,0.1201
1299.0,0.1283
1300.0,0.1007
1301.0,0.1051
1302.0,0.1198
1303.0,0.1001
1304.0,0.07837
1305.0,0.117
1306.0,0.1162
1307.0,0.08267
1308.0,0.1015
1309.0,0.1141
1310.0,0.08045
1311.0,0.09567
1312.0,0.09211
1313.0,0.08861
1314.0,0.07677
1315.0,0.07422
1316.0,0.09279
1317.0,0.08689
1318.0,0.09749
1319.0,0.06784
1320.0,0.06736
1321.0,0.08143
1322.0,0.08065
1323.0,0.05407
1324.0,0.06689
1325.0,0.09055
1326.0,0.07357
1327.0,0.06897
1328.0,0.05715
1329.0,0.03731
1330.0,0.05154
1331.0,0.02532
1332.0,0.02778
1333.0,0.03974
1334.0,0.03753
1335.0,0.05329
1336.0,0.03872
1337.0,0.03336
1338.0,0.0357
1339.0,0.03633
1340.0,0.03707
1341.0,0.03207
1342.0,0.03423
1343.0,0.017
1344.0,0.01078
1345.0,0.01511
1346.0,0.004696
1347.0,0.004331
1348.0,0.0001077
1349.0,0.0004821
1350.0,0.0005832
1351.0,5.853e-05
1352.0,5.124e-06
1353.0,1.338e-07
1354.0,7.983e-07
1355.0,1.867e-09
1356.0,6.455e-08
1357.0,9.737e-08
1358.0,2.257e-09
1359.0,2.146e-10
1360.0,8.825e-10
1361.0,8.244e-13
1362.0,2.248e-15
1363.0,1.061e-09
1364.0,4.48e-10
1365.0,7.84e-16
1366.0,4.804e-09
1367.0,2.185e-09
1368.0,6.053e-18
1369.0,1.654e-10
1370.0,7.717e-11
1371.0,4.274e-12
1372.0,1.21e-09
1373.0,3.536e-08
1374.0,2.618e-07
1375.0,4.007e-07
1376.0,7.458e-07
1377.0,3.067e-07
1378.0,3.228e-06
1379.0,1.34e-07
1380.0,1.2e-07
1381.0,2.672e-09
1382.0,1.014e-09
1383.0,1.43e-11
1384.0,1.743e-10
1385.0,1.268e-09
1386.0,8.175e-10
1387.0,1.713e-07
1388.0,4.595e-09
1389.0,1.155e-06
1390.0,9.065e-07
1391.0,5.907e-07
1392.0,3.805e-08
1393.0,2.659e-07
1394.0,5.192e-08
1395.0,3.111e-10
1396.0,1.078e-12
1397.0,8.417e-08
1398.0,3.169e-06
1399.0,2.147e-06
1400.0,4.581e-13
1401.0,1.92e-12
1402.0,2.045e-05
1403.0,1.95e-05
1404.0,5.131e-06
1405.0,1.266e-10
1406.0,8.575e-06
1407.0,1.398e-06
1408.0,7.693e-06
1409.0,1.42e-06
1410.0,2.07e-06
1411.0,1.822e-05
1412.0,3.399e-05
1413.0,0.0007437
1414.0,1.818e-06
1415.0,6.77e-07
1416.0,0.002352
1417.0,0.0004397
1418.0,0.0003752
1419.0,5.215e-05
1420.0,0.0002255
1421.0,0.0003031
1422.0,0.003071
1423.0,0.0005449
1424.0,0.001162
1425.0,0.001437
1426.0,0.002161
1427.0,0.005
1428.0,8.97e-05
1429.0,0.003059
1430.0,0.007143
