interpolation:linear
wavelength,value
280.0,2.174e-21
280.5,6.872e-20
281.0,3.636e-19
281.5,3.977e-19
282.0,1.025e-18
282.5,2.653e-18
283.0,8.518e-18
283.5,1.391e-17
284.0,2.262e-16
284.5,6.533e-16
285.0,1.437e-15
285.5,6.912e-15
286.0,2.758e-14
286.5,1.215e-13
287.0,3.436e-13
287.5,1.3e-12
288.0,3.597e-12
288.5,1.173e-11
289.0,3.285e-11
289.5,1.029e-10
290.0,2.918e-10
290.5,6.037e-10
291.0,1.313e-09
291.5,3.815e-09
292.0,7.915e-09
292.5,1.178e-08
293.0,2.719e-08
293.5,7.297e-08
294.0,1.222e-07
294.5,1.584e-07
295.0,2.864e-07
295.5,7.128e-07
296.0,1.426e-06
296.5,2.079e-06
297.0,2.923e-06
297.5,8.355e-06
298.0,1.399e-05
298.5,1.482e-05
299.0,3.447e-05
299.5,6.334e-05
300.0,7.418e-05
300.5,0.0001152
301.0,0.0002366
301.5,0.0004332
302.0,0.0004036
302.5,0.0008013
303.0,0.00147
303.5,0.001877
304.0,0.001782
304.5,0.002729
305.0,0.004284
305.5,0.005013
306.0,0.004893
306.5,0.006174
307.0,0.009425
307.5,0.01287
308.0,0.01365
308.5,0.01633
309.0,0.01616
309.5,0.01877
310.0,0.01899
310.5,0.03086
311.0,0.03896
311.5,0.03771
312.0,0.03815
312.5,0.04679
313.0,0.05096
313.5,0.04931
314.0,0.06222
314.5,0.05583
315.0,0.07353
315.5,0.06119
316.0,0.05395
316.5,0.07809
317.0,0.09696
317.5,0.1007
318.0,0.07899
318.5,0.09907
319.0,0.1182
319.5,0.09559
320.0,0.1154
320.5,0.1459
321.0,0.131
321.5,0.1258
322.0,0.1328
322.5,0.1156
323.0,0.1159
323.5,0.1432
324.0,0.1673
324.5,0.1695
325.0,0.1461
325.5,0.1888
326.0,0.2311
326.5,0.2321
327.0,0.2312
327.5,0.2231
328.0,0.198
328.5,0.209
329.0,0.2511
329.5,0.2854
330.0,0.2877
330.5,0.2298
331.0,0.234
331.5,0.2383
332.0,0.2582
332.5,0.2558
333.0,0.2549
333.5,0.2303
334.0,0.2359
334.5,0.2729
335.0,0.2568
335.5,0.3001
336.0,0.2077
336.5,0.2431
337.0,0.1993
337.5,0.2479
338.0,0.2425
338.5,0.2801
339.0,0.2773
339.5,0.2669
340.0,0.3136
340.5,0.2828
341.0,0.2759
341.5,0.2534
342.0,0.303
342.5,0.2836
343.0,0.3119
343.5,0.2938
344.0,0.2172
344.5,0.2194
345.0,0.2905
345.5,0.2967
346.0,0.2523
346.5,0.2858
347.0,0.3069
347.5,0.2482
348.0,0.2831
348.5,0.283
349.0,0.2627
349.5,0.2602
350.0,0.3219
350.5,0.3397
351.0,0.3035
351.5,0.295
352.0,0.317
352.5,0.2475
353.0,0.3119
353.5,0.3336
354.0,0.3464
354.5,0.3514
355.0,0.3503
355.5,0.3166
356.0,0.3314
356.5,0.283
357.0,0.2339
357.5,0.2864
358.0,0.2271
358.5,0.1941
359.0,0.2715
359.5,0.3461
360.0,0.367
360.5,0.2934
361.0,0.2676
361.5,0.3083
362.0,0.2667
362.5,0.3693
363.0,0.3319
363.5,0.3058
364.0,0.3742
364.5,0.32
365.0,0.326
365.5,0.4093
366.0,0.4338
366.5,0.4078
367.0,0.3972
367.5,0.4124
368.0,0.361
368.5,0.3644
369.0,0.3937
369.5,0.4197
370.0,0.4476
370.5,0.3475
371.0,0.3715
371.5,0.4649
372.0,0.3086
372.5,0.3702
373.0,0.3767
373.5,0.2452
374.0,0.3564
374.5,0.2953
375.0,0.2871
375.5,0.4288
376.0,0.3556
376.5,0.3686
377.0,0.3904
377.5,0.4569
378.0,0.4954
378.5,0.4683
379.0,0.3866
379.5,0.3532
380.0,0.3673
380.5,0.445
381.0,0.4462
381.5,0.3539
382.0,0.3144
382.5,0.2681
383.0,0.2483
383.5,0.2393
384.0,0.264
384.5,0.3885
385.0,0.3854
385.5,0.3591
386.0,0.3076
386.5,0.4043
387.0,0.336
387.5,0.3775
388.0,0.3487
388.5,0.3448
389.0,0.3723
389.5,0.4511
390.0,0.4529
390.5,0.4169
391.0,0.4909
391.5,0.5008
392.0,0.422
392.5,0.3779
393.0,0.2104
393.5,0.153
394.0,0.3114
394.5,0.396
395.0,0.4834
395.5,0.4911
396.0,0.4259
396.5,0.2491
397.0,0.187
397.5,0.3804
398.0,0.5328
398.5,0.5509
399.0,0.5968
399.5,0.595
400.0,0.618
401.0,0.6261
402.0,0.661
403.0,0.6283
404.0,0.619
405.0,0.6192
406.0,0.6095
407.0,0.6001
408.0,0.6237
409.0,0.6678
410.0,0.5839
411.0,0.6328
412.0,0.6801
413.0,0.6634
414.0,0.6719
415.0,0.6741
416.0,0.6863
417.0,0.6696
418.0,0.6575
419.0,0.6665
420.0,0.6638
421.0,0.6947
422.0,0.6606
423.0,0.6455
424.0,0.683
425.0,0.682
426.0,0.6648
427.0,0.6526
428.0,0.6359
429.0,0.6027
430.0,0.5276
431.0,0.523
432.0,0.6757
433.0,0.6796
434.0,0.6312
435.0,0.6594
436.0,0.7433
437.0,0.7337
438.0,0.6684
439.0,0.6912
440.0,0.7135
441.0,0.7396
442.0,0.7934
443.0,0.7728
444.0,0.7899
445.0,0.7729
446.0,0.738
447.0,0.7982
448.0,0.8106
449.0,0.8143
450.0,0.8373
451.0,0.8686
452.0,0.837
453.0,0.7875
454.0,0.8224
455.0,0.8276
456.0,0.8474
457.0,0.8616
458.0,0.8322
459.0,0.828
460.0,0.8302
461.0,0.8495
462.0,0.8563
463.0,0.8505
464.0,0.8368
465.0,0.8266
466.0,0.8349
467.0,0.8196
468.0,0.8293
469.0,0.8337
470.0,0.8071
471.0,0.8062
472.0,0.8495
473.0,0.8385
474.0,0.8396
475.0,0.8465
476.0,0.821
477.0,0.8231
478.0,0.846
479.0,0.8411
480.0,0.8429
481.0,0.859
482.0,0.8638
483.0,0.8537
484.0,0.8364
485.0,0.7971
486.0,0.697
487.0,0.7307
488.0,0.8016
489.0,0.804
490.0,0.8461
491.0,0.8317
492.0,0.7854
493.0,0.8112
494.0,0.8194
495.0,0.8264
496.0,0.8315
497.0,0.8444
498.0,0.8049
499.0,0.8151
500.0,0.7913
501.0,0.7766
502.0,0.7653
503.0,0.7961
504.0,0.7747
505.0,0.8034
506.0,0.8293
507.0,0.7892
508.0,0.765
509.0,0.7867
510.0,0.7828
511.0,0.8041
512.0,0.8129
513.0,0.7695
514.0,0.7643
515.0,0.7567
516.0,0.7548
517.0,0.6708
518.0,0.7052
519.0,0.7396
520.0,0.7665
521.0,0.7738
522.0,0.7744
523.0,0.7604
524.0,0.7874
525.0,0.7964
526.0,0.7607
527.0,0.7166
528.0,0.7577
529.0,0.7985
530.0,0.7869
531.0,0.7985
532.0,0.771
533.0,0.7484
534.0,0.7707
535.0,0.7876
536.0,0.795
537.0,0.7637
538.0,0.7773
539.0,0.7708
540.0,0.7389
541.0,0.7435
542.0,0.7666
543.0,0.7588
544.0,0.7717
545.0,0.7693
546.0,0.7724
547.0,0.7723
548.0,0.7632
549.0,0.7656
550.0,0.7748
551.0,0.7654
552.0,0.7707
553.0,0.7569
554.0,0.775
555.0,0.7764
556.0,0.7663
557.0,0.7424
558.0,0.7366
559.0,0.7227
560.0,0.7316
561.0,0.7409
562.0,0.7353
563.0,0.7552
564.0,0.7344
565.0,0.7279
566.0,0.717
567.0,0.7304
568.0,0.7232
569.0,0.7048
570.0,0.7048
571.0,0.7009
572.0,0.7169
573.0,0.7244
574.0,0.722
575.0,0.7082
576.0,0.7018
577.0,0.7095
578.0,0.6992
579.0,0.7025
580.0,0.7168
581.0,0.7211
582.0,0.7353
583.0,0.7376
584.0,0.7444
585.0,0.7264
586.0,0.7114
587.0,0.7267
588.0,0.7075
589.0,0.6239
590.0,0.6527
591.0,0.6924
592.0,0.6826
593.0,0.6941
594.0,0.6887
595.0,0.6706
596.0,0.6995
597.0,0.6913
598.0,0.6903
599.0,0.6912
600.0,0.6928
601.0,0.6876
602.0,0.683
603.0,0.6946
604.0,0.7062
605.0,0.7027
606.0,0.7
607.0,0.7073
608.0,0.6997
609.0,0.7011
610.0,0.6964
611.0,0.7002
612.0,0.6983
613.0,0.6896
614.0,0.6804
615.0,0.6954
616.0,0.6727
617.0,0.6715
618.0,0.6974
619.0,0.6904
620.0,0.6948
621.0,0.6953
622.0,0.6869
623.0,0.6763
624.0,0.6649
625.0,0.6634
626.0,0.6732
627.0,0.6802
628.0,0.6285
629.0,0.6618
630.0,0.6463
631.0,0.6631
632.0,0.6556
633.0,0.6765
634.0,0.6706
635.0,0.6815
636.0,0.6729
637.0,0.6842
638.0,0.6913
639.0,0.6838
640.0,0.6775
641.0,0.6773
642.0,0.6745
643.0,0.6836
644.0,0.6817
645.0,0.6826
646.0,0.6659
647.0,0.6562
648.0,0.6567
649.0,0.6438
650.0,0.6493
651.0,0.6779
652.0,0.6471
653.0,0.669
654.0,0.6617
655.0,0.6359
656.0,0.5644
657.0,0.5797
658.0,0.6504
659.0,0.6554
660.0,0.6583
661.0,0.663
662.0,0.6639
663.0,0.6509
664.0,0.6593
665.0,0.6604
666.0,0.6611
667.0,0.6607
668.0,0.6613
669.0,0.6717
670.0,0.6689
671.0,0.6689
672.0,0.6632
673.0,0.6733
674.0,0.6709
675.0,0.6649
676.0,0.6696
677.0,0.663
678.0,0.665
679.0,0.6543
680.0,0.6596
681.0,0.6553
682.0,0.6545
683.0,0.6533
684.0,0.65
685.0,0.6557
686.0,0.6517
687.0,0.404
688.0,0.4868
689.0,0.489
690.0,0.5174
691.0,0.5499
692.0,0.5741
693.0,0.569
694.0,0.5645
695.0,0.5914
696.0,0.5923
697.0,0.6329
698.0,0.623
699.0,0.6053
700.0,0.5978
701.0,0.5908
702.0,0.5959
703.0,0.5972
704.0,0.618
705.0,0.6189
706.0,0.6191
707.0,0.6198
708.0,0.621
709.0,0.623
710.0,0.6225
711.0,0.622
712.0,0.6206
713.0,0.6139
714.0,0.6163
715.0,0.5958
716.0,0.5958
717.0,0.5063
718.0,0.4637
719.0,0.4238
720.0,0.443
721.0,0.4953
722.0,0.5734
723.0,0.5303
724.0,0.4738
725.0,0.4647
726.0,0.487
727.0,0.4966
728.0,0.4631
729.0,0.4842
730.0,0.512
731.0,0.4889
732.0,0.5268
733.0,0.5614
734.0,0.5758
735.0,0.5633
736.0,0.5626
737.0,0.5647
738.0,0.5761
739.0,0.5647
740.0,0.5802
741.0,0.575
742.0,0.576
743.0,0.5908
744.0,0.5894
745.0,0.5898
746.0,0.5925
747.0,0.5938
748.0,0.5926
749.0,0.5859
750.0,0.5856
751.0,0.5796
752.0,0.5822
753.0,0.5851
754.0,0.5865
755.0,0.5831
756.0,0.5829
757.0,0.5837
758.0,0.5764
759.0,0.5631
760.0,0.06904
761.0,0.03243
762.0,0.2576
763.0,0.1136
764.0,0.1836
765.0,0.2575
766.0,0.33
767.0,0.4312
768.0,0.5099
769.0,0.5235
770.0,0.5445
771.0,0.5503
772.0,0.5519
773.0,0.5559
774.0,0.5533
775.0,0.5491
776.0,0.5559
777.0,0.5486
778.0,0.5452
779.0,0.5457
780.0,0.5426
781.0,0.5432
782.0,0.5466
783.0,0.5372
784.0,0.5398
785.0,0.5357
786.0,0.5415
787.0,0.5308
788.0,0.5236
789.0,0.5232
790.0,0.5075
791.0,0.5137
792.0,0.5101
793.0,0.5017
794.0,0.5121
795.0,0.5203
796.0,0.5018
797.0,0.5023
798.0,0.5194
799.0,0.5156
800.0,0.506
801.0,0.5039
802.0,0.5025
803.0,0.4983
804.0,0.4993
805.0,0.4985
806.0,0.5137
807.0,0.5072
808.0,0.5078
809.0,0.4973
810.0,0.4926
811.0,0.4919
812.0,0.4762
813.0,0.4653
814.0,0.404
815.0,0.4018
816.0,0.3733
817.0,0.3807
818.0,0.3652
819.0,0.4129
820.0,0.3872
821.0,0.4591
822.0,0.4449
823.0,0.2924
824.0,0.4296
825.0,0.451
826.0,0.4318
827.0,0.4578
828.0,0.382
829.0,0.4296
830.0,0.4234
831.0,0.425
832.0,0.4109
833.0,0.4402
834.0,0.4225
835.0,0.4687
836.0,0.4457
837.0,0.4701
838.0,0.4541
839.0,0.4634
840.0,0.4739
841.0,0.4665
842.0,0.4685
843.0,0.4692
844.0,0.4622
845.0,0.4785
846.0,0.4766
847.0,0.468
848.0,0.4647
849.0,0.4515
850.0,0.4326
851.0,0.4575
852.0,0.4545
853.0,0.4379
854.0,0.3778
855.0,0.4155
856.0,0.4539
857.0,0.4643
858.0,0.4607
859.0,0.4613
860.0,0.4623
861.0,0.4597
862.0,0.467
863.0,0.4781
864.0,0.4542
865.0,0.4503
866.0,0.4049
867.0,0.4225
868.0,0.4598
869.0,0.4503
870.0,0.4631
871.0,0.4568
872.0,0.4552
873.0,0.4543
874.0,0.4489
875.0,0.4398
876.0,0.4444
877.0,0.4489
878.0,0.4537
879.0,0.4467
880.0,0.4371
881.0,0.4303
882.0,0.4396
883.0,0.4412
884.0,0.4391
885.0,0.4424
886.0,0.4208
887.0,0.4259
888.0,0.4318
889.0,0.4374
890.0,0.4328
891.0,0.4326
892.0,0.4189
893.0,0.4045
894.0,0.3876
895.0,0.3629
896.0,0.3407
897.0,0.2885
898.0,0.3171
899.0,0.2363
900.0,0.3273
901.0,0.2477
902.0,0.2973
903.0,0.298
904.0,0.3847
905.0,0.3701
906.0,0.3453
907.0,0.274
908.0,0.2805
909.0,0.3067
910.0,0.2659
911.0,0.287
912.0,0.3009
913.0,0.2696
914.0,0.2684
915.0,0.2909
916.0,0.2451
917.0,0.3166
918.0,0.251
919.0,0.324
920.0,0.3306
921.0,0.3441
922.0,0.3037
923.0,0.3327
924.0,0.3106
925.0,0.3039
926.0,0.3069
927.0,0.3475
928.0,0.2437
929.0,0.2195
930.0,0.1677
931.0,0.1594
932.0,0.1098
933.0,0.08686
934.0,0.04263
935.0,0.09086
936.0,0.0535
937.0,0.05394
938.0,0.06756
939.0,0.1544
940.0,0.1893
941.0,0.1381
942.0,0.1627
943.0,0.1033
944.0,0.1124
945.0,0.1434
946.0,0.06804
947.0,0.1427
948.0,0.1042
949.0,0.1959
950.0,0.04725
951.0,0.1938
952.0,0.09769
953.0,0.1304
954.0,0.1647
955.0,0.1324
956.0,0.132
957.0,0.09733
958.0,0.1932
959.0,0.1479
960.0,0.1658
961.0,0.1905
962.0,0.1798
963.0,0.2111
964.0,0.1922
965.0,0.2105
966.0,0.2097
967.0,0.2084
968.0,0.2934
969.0,0.3049
970.0,0.2784
971.0,0.3248
972.0,0.3095
973.0,0.2632
974.0,0.2491
975.0,0.2609
976.0,0.2443
977.0,0.2849
978.0,0.2678
979.0,0.2823
980.0,0.2644
981.0,0.3232
982.0,0.3067
983.0,0.2932
984.0,0.3356
985.0,0.3055
986.0,0.3432
987.0,0.3345
988.0,0.334
989.0,0.3432
990.0,0.332
991.0,0.344
992.0,0.3462
993.0,0.3366
994.0,0.3463
995.0,0.3461
996.0,0.3443
997.0,0.3449
998.0,0.3432
999.0,0.342
1000.0,0.3392
1001.0,0.3439
1002.0,0.3326
1003.0,0.3377
1004.0,0.329
1005.0,0.3176
1006.0,0.3297
1007.0,0.3368
1008.0,0.3347
1009.0,0.3325
1010.0,0.3309
1011.0,0.3352
1012.0,0.3319
1013.0,0.3344
1014.0,0.3321
1015.0,0.3298
1016.0,0.3283
1017.0,0.3291
1018.0,0.3281
1019.0,0.3204
1020.0,0.3262
1021.0,0.3259
1022.0,0.3231
1023.0,0.3265
1024.0,0.3215
1025.0,0.3265
1026.0,0.3249
1027.0,0.3242
1028.0,0.3235
1029.0,0.3196
1030.0,0.322
1031.0,0.3207
1032.0,0.3198
1033.0,0.315
1034.0,0.315
1035.0,0.316
1036.0,0.3175
1037.0,0.3124
1038.0,0.3138
1039.0,0.3135
1040.0,0.3123
1041.0,0.3135
1042.0,0.3113
1043.0,0.3102
1044.0,0.3113
1045.0,0.307
1046.0,0.3036
1047.0,0.3063
1048.0,0.3079
1049.0,0.3067
1050.0,0.3052
1051.0,0.3047
1052.0,0.3034
1053.0,0.3009
1054.0,0.3015
1055.0,0.3016
1056.0,0.3004
1057.0,0.2994
1058.0,0.2919
1059.0,0.2921
1060.0,0.2916
1061.0,0.2912
1062.0,0.2926
1063.0,0.2896
1064.0,0.2931
1065.0,0.2907
1066.0,0.2852
1067.0,0.2888
1068.0,0.2823
1069.0,0.2737
1070.0,0.2828
1071.0,0.2879
1072.0,0.2841
1073.0,0.2801
1074.0,0.288
1075.0,0.2717
1076.0,0.2877
1077.0,0.2815
1078.0,0.2757
1079.0,0.2834
1080.0,0.2771
1081.0,0.2673
1082.0,0.2732
1083.0,0.2745
1084.0,0.2662
1085.0,0.2779
1086.0,0.2509
1087.0,0.2609
1088.0,0.2739
1089.0,0.2637
1090.0,0.2568
1091.0,0.2725
1092.0,0.2722
1093.0,0.2257
1094.0,0.2484
1095.0,0.2357
1096.0,0.2242
1097.0,0.2659
1098.0,0.22
1099.0,0.2303
1100.0,0.212
1101.0,0.2153
1102.0,0.2043
1103.0,0.2013
1104.0,0.2017
1105.0,0.2246
1106.0,0.1635
1107.0,0.2117
1108.0,0.1745
1109.0,0.1758
1110.0,0.2091
1111.0,0.1353
1112.0,0.1748
1113.0,0.1047
1114.0,0.1175
1115.0,0.09708
1116.0,0.0737
1117.0,0.02327
1118.0,0.08137
1119.0,0.03714
1120.0,0.04642
1121.0,0.06349
1122.0,0.02401
1123.0,0.0421
1124.0,0.03548
1125.0,0.04709
1126.0,0.01378
1127.0,0.05337
1128.0,0.02901
1129.0,0.03114
1130.0,0.01959
1131.0,0.1086
1132.0,0.0838
1133.0,0.04909
1134.0,0.01054
1135.0,0.004076
1136.0,0.03956
1137.0,0.1053
1138.0,0.07342
1139.0,0.1177
1140.0,0.09518
1141.0,0.06985
1142.0,0.08194
1143.0,0.1198
1144.0,0.03806
1145.0,0.04741
1146.0,0.05108
1147.0,0.01532
1148.0,0.1034
1149.0,0.0802
1150.0,0.04147
1151.0,0.07282
1152.0,0.09247
1153.0,0.09231
1154.0,0.04575
1155.0,0.1226
1156.0,0.1088
1157.0,0.1249
1158.0,0.1235
1159.0,0.1351
1160.0,0.1135
1161.0,0.1443
1162.0,0.1447
1163.0,0.2029
1164.0,0.1713
1165.0,0.159
1166.0,0.1599
1167.0,0.1755
1168.0,0.1768
1169.0,0.1819
1170.0,0.1999
1171.0,0.1947
1172.0,0.1996
1173.0,0.1995
1174.0,0.1371
1175.0,0.196
1176.0,0.2183
1177.0,0.2076
1178.0,0.152
1179.0,0.2201
1180.0,0.1934
1181.0,0.1998
1182.0,0.1335
1183.0,0.1974
1184.0,0.1835
1185.0,0.1758
1186.0,0.2127
1187.0,0.2013
1188.0,0.1352
1189.0,0.1873
1190.0,0.2081
1191.0,0.1951
1192.0,0.2112
1193.0,0.2016
1194.0,0.2083
1195.0,0.1953
1196.0,0.1871
1197.0,0.2093
1198.0,0.1904
1199.0,0.1583
1200.0,0.1989
1201.0,0.1906
1202.0,0.1904
1203.0,0.1884
1204.0,0.163
1205.0,0.1959
1206.0,0.2182
1207.0,0.1895
1208.0,0.1876
1209.0,0.1917
1210.0,0.2005
1211.0,0.1896
1212.0,0.1856
1213.0,0.2102
1214.0,0.1908
1215.0,0.1869
1216.0,0.2097
1217.0,0.2035
1218.0,0.2079
1219.0,0.205
1220.0,0.2082
1221.0,0.2106
1222.0,0.2048
1223.0,0.2026
1224.0,0.2008
1225.0,0.2092
1226.0,0.2111
1227.0,0.193
1228.0,0.2126
1229.0,0.2111
1230.0,0.2072
1231.0,0.2142
1232.0,0.2129
1233.0,0.2041
1234.0,0.2144
1235.0,0.2128
1236.0,0.2145
1237.0,0.2109
1238.0,0.2138
1239.0,0.2111
1240.0,0.2119
1241.0,0.2106
1242.0,0.2104
1243.0,0.2087
1244.0,0.2101
1245.0,0.2111
1246.0,0.2099
1247.0,0.2089
1248.0,0.2086
1249.0,0.2094
1250.0,0.2081
1251.0,0.2052
1252.0,0.2055
1253.0,0.2033
1254.0,0.2009
1255.0,0.2051
1256.0,0.1984
1257.0,0.1971
1258.0,0.2016
1259.0,0.1928
1260.0,0.194
1261.0,0.1812
1262.0,0.1748
1263.0,0.1751
1264.0,0.1594
1265.0,0.174
1266.0,0.1661
1267.0,0.1699
1268.0,0.1597
1269.0,0.08989
1270.0,0.169
1271.0,0.1808
1272.0,0.1816
1273.0,0.1795
1274.0,0.1804
1275.0,0.1833
1276.0,0.1855
1277.0,0.1872
1278.0,0.1915
1279.0,0.1897
1280.0,0.1874
1281.0,0.1791
1282.0,0.1732
1283.0,0.1864
1284.0,0.1907
1285.0,0.1921
1286.0,0.195
1287.0,0.1914
1288.0,0.1915
1289.0,0.1843
1290.0,0.1899
1291.0,0.1928
1292.0,0.179
1293.0,0.1885
1294.0,0.1871
1295.0,0.1855
1296.0,0.1758
1297.0,0.1653
1298.0,0.18
1299.0,0.189
1300.0,0.1563
1301.0,0.1618
1302.0,0.1795
1303.0,0.1547
1304.0,0.1286
1305.0,0.1756
1306.0,0.1753
1307.0,0.1326
1308.0,0.1555
1309.0,0.1736
1310.0,0.1298
1311.0,0.1483
1312.0,0.1438
1313.0,0.1403
1314.0,0.1244
1315.0,0.122
1316.0,0.1453
1317.0,0.1373
1318.0,0.1506
1319.0,0.1136
1320.0,0.111
1321.0,0.1307
1322.0,0.1313
1323.0,0.09541
1324.0,0.1116
1325.0,0.143
1326.0,0.1206
1327.0,0.1144
1328.0,0.09754
1329.0,0.07028
1330.0,0.093
1331.0,0.05272
1332.0,0.05555
1333.0,0.07805
1334.0,0.06802
1335.0,0.09491
1336.0,0.0732
1337.0,0.06392
1338.0,0.06909
1339.0,0.06928
1340.0,0.06836
1341.0,0.06448
1342.0,0.06796
1343.0,0.04182
1344.0,0.02538
1345.0,0.03663
1346.0,0.01577
1347.0,0.01562
1348.0,0.0007358
1349.0,0.002882
1350.0,0.003183
1351.0,0.0005777
1352.0,0.0001107
1353.0,4.1e-06
1354.0,1.774e-05
1355.0,7.083e-08
1356.0,1.969e-06
1357.0,3.012e-06
1358.0,8.633e-08
1359.0,6.325e-09
1360.0,3.257e-08
1361.0,1.211e-11
1362.0,2.19e-14
1363.0,3.598e-08
1364.0,1.503e-08
1365.0,4.363e-15
1366.0,1.812e-07
1367.0,8.469e-08
1368.0,1.388e-17
1369.0,5.516e-09
1370.0,2.164e-09
1371.0,9.53e-11
1372.0,4.707e-08
1373.0,1.352e-06
1374.0,8.054e-06
1375.0,1.415e-05
1376.0,1.62e-05
1377.0,7.059e-06
1378.0,7.52e-05
1379.0,2.966e-06
1380.0,3.618e-06
1381.0,8.357e-08
1382.0,3.968e-08
1383.0,5.016e-10
1384.0,5.652e-09
1385.0,4.924e-08
1386.0,2.991e-08
1387.0,7.001e-06
1388.0,1.456e-07
1389.0,3.192e-05
1390.0,2.706e-05
1391.0,1.736e-05
1392.0,1.067e-06
1393.0,6.438e-06
1394.0,2.171e-06
1395.0,1.247e-08
1396.0,2.023e-11
1397.0,2.328e-06
1398.0,8.161e-05
1399.0,5.249e-05
1400.0,6.494e-12
1401.0,4.044e-11
1402.0,0.0002119
1403.0,0.0002475
1404.0,7.291e-05
1405.0,4.983e-09
1406.0,0.0001673
1407.0,1.671e-05
1408.0,0.0001402
1409.0,3.831e-05
1410.0,3.598e-05
1411.0,0.000221
1412.0,0.0003291
1413.0,0.004456
1414.0,2.923e-05
1415.0,1.28e-05
1416.0,0.008864
1417.0,0.002228
1418.0,0.00241
1419.0,0.0003577
1420.0,0.001462
1421.0,0.001622
1422.0,0.01164
1423.0,0.00215
1424.0,0.004173
1425.0,0.005871
1426.0,0.007271
1427.0,0.0147
1428.0,0.0006699
1429.0,0.01028
1430.0,0.0194
1431.0,0.02179
1432.0,0.0005201
1433.0,0.01323
1434.0,0.006421
1435.0,0.005402
1436.0,0.01196
