interpolation:linear
wavelength,value
280.0,7.030999999999999e-22
280.5,2.2800000000000002e-20
281.0,1.216e-19
281.5,5.135e-19
282.0,8.596e-19
282.5,2.126e-18
283.0,6.695e-18
283.5,1.087e-17
284.0,1.768e-16
284.5,5.126e-16
285.0,9.408e-16
285.5,4.593e-15
286.0,1.841e-14
286.5,8.199e-14
287.0,2.336e-13
287.5,8.932e-13
288.0,2.879e-12
288.5,8.864e-12
289.0,2.385e-11
289.5,7.25e-11
290.0,2.019e-10
290.5,4.125e-10
291.0,8.867e-10
291.5,2.547e-09
292.0,5.85e-09
292.5,8.189e-09
293.0,1.751e-08
293.5,4.246e-08
294.0,6.627e-08
294.5,8.782e-08
295.0,1.484e-07
295.5,2.97e-07
296.0,5.581e-07
296.5,8.01e-07
297.0,1.111e-06
297.5,3.113e-06
298.0,5.13e-06
298.5,5.368e-06
299.0,1.236e-05
299.5,2.239e-05
300.0,2.603e-05
300.5,4.015e-05
301.0,8.147e-05
301.5,0.0001465
302.0,0.0001345
302.5,0.0002711
303.0,0.000509
303.5,0.0006617
304.0,0.0006385
304.5,0.001021
305.0,0.001707
305.5,0.00208
306.0,0.002063
306.5,0.002674
307.0,0.004334
307.5,0.006277
308.0,0.006724
308.5,0.008285
309.0,0.008414
309.5,0.01017
310.0,0.01048
310.5,0.01719
311.0,0.02202
311.5,0.02145
312.0,0.02242
312.5,0.02809
313.0,0.03094
313.5,0.02963
314.0,0.03836
314.5,0.03561
315.0,0.04718
315.5,0.03862
316.0,0.035
316.5,0.05188
317.0,0.06438
317.5,0.06642
318.0,0.05295
318.5,0.06849
319.0,0.08298
319.5,0.06547
320.0,0.07873
320.5,0.1027
321.0,0.09491
321.5,0.09136
322.0,0.09363
322.5,0.08164
323.0,0.08344
323.5,0.1049
324.0,0.123
324.5,0.1236
325.0,0.1056
325.5,0.1386
326.0,0.1704
326.5,0.1729
327.0,0.1715
327.5,0.1647
328.0,0.1442
328.5,0.1548
329.0,0.1885
329.5,0.2151
330.0,0.2162
330.5,0.1709
331.0,0.1734
331.5,0.178
332.0,0.1951
332.5,0.1942
333.0,0.193
333.5,0.173
334.0,0.177
334.5,0.2067
335.0,0.1956
335.5,0.2287
336.0,0.1583
336.5,0.1847
337.0,0.1509
337.5,0.1874
338.0,0.1848
338.5,0.2137
339.0,0.2117
339.5,0.2037
340.0,0.2391
340.5,0.2158
341.0,0.2108
341.5,0.1938
342.0,0.2317
342.5,0.217
343.0,0.2386
343.5,0.2246
344.0,0.1659
344.5,0.1677
345.0,0.2223
345.5,0.2272
346.0,0.1933
346.5,0.219
347.0,0.2351
347.5,0.1902
348.0,0.2171
348.5,0.2171
349.0,0.2016
349.5,0.1997
350.0,0.2472
350.5,0.2608
351.0,0.233
351.5,0.2264
352.0,0.2434
352.5,0.1901
353.0,0.2397
353.5,0.2565
354.0,0.2664
354.5,0.2702
355.0,0.2694
355.5,0.2436
356.0,0.255
356.5,0.2178
357.0,0.18
357.5,0.2205
358.0,0.1748
358.5,0.1495
359.0,0.2091
359.5,0.2665
360.0,0.2826
360.5,0.226
361.0,0.2062
361.5,0.2377
362.0,0.2057
362.5,0.285
363.0,0.2561
363.5,0.2361
364.0,0.289
364.5,0.2471
365.0,0.2518
365.5,0.3162
366.0,0.3353
366.5,0.3152
367.0,0.3071
367.5,0.3189
368.0,0.2792
368.5,0.2819
369.0,0.3046
369.5,0.3249
370.0,0.3465
370.5,0.2691
371.0,0.2877
371.5,0.3601
372.0,0.2391
372.5,0.2869
373.0,0.292
373.5,0.1901
374.0,0.2764
374.5,0.229
375.0,0.2228
375.5,0.3327
376.0,0.2759
376.5,0.286
377.0,0.303
377.5,0.3547
378.0,0.3847
378.5,0.3637
379.0,0.3002
379.5,0.2743
380.0,0.2853
380.5,0.3458
381.0,0.3468
381.5,0.2751
382.0,0.2445
382.5,0.2086
383.0,0.1933
383.5,0.1863
384.0,0.2056
384.5,0.3025
385.0,0.3002
385.5,0.2797
386.0,0.2397
386.5,0.3151
387.0,0.262
387.5,0.2944
388.0,0.2719
388.5,0.269
389.0,0.2905
389.5,0.352
390.0,0.3535
390.5,0.3254
391.0,0.3833
391.5,0.3911
392.0,0.3296
392.5,0.2952
393.0,0.1644
393.5,0.1196
394.0,0.2434
394.5,0.3097
395.0,0.378
395.5,0.3841
396.0,0.3332
396.5,0.1949
397.0,0.1464
397.5,0.2978
398.0,0.4171
398.5,0.4314
399.0,0.4675
399.5,0.4662
400.0,0.4841
401.0,0.4895
402.0,0.5171
403.0,0.4918
404.0,0.4846
405.0,0.4849
406.0,0.4776
407.0,0.4704
408.0,0.4889
409.0,0.5237
410.0,0.4581
411.0,0.4967
412.0,0.5341
413.0,0.5211
414.0,0.528
415.0,0.5299
416.0,0.5397
417.0,0.5268
418.0,0.5174
419.0,0.5247
420.0,0.5227
421.0,0.5473
422.0,0.5205
423.0,0.5088
424.0,0.5384
425.0,0.5378
426.0,0.5245
427.0,0.515
428.0,0.502
429.0,0.476
430.0,0.4169
431.0,0.4133
432.0,0.5341
433.0,0.5374
434.0,0.4992
435.0,0.5215
436.0,0.5883
437.0,0.581
438.0,0.5294
439.0,0.5473
440.0,0.5651
441.0,0.5861
442.0,0.6289
443.0,0.6124
444.0,0.6263
445.0,0.6128
446.0,0.5855
447.0,0.6336
448.0,0.6433
449.0,0.6467
450.0,0.6652
451.0,0.6901
452.0,0.6653
453.0,0.6261
454.0,0.6541
455.0,0.6583
456.0,0.6742
457.0,0.6856
458.0,0.662
459.0,0.6588
460.0,0.6605
461.0,0.6759
462.0,0.6816
463.0,0.677
464.0,0.6665
465.0,0.6588
466.0,0.6657
467.0,0.6534
468.0,0.6612
469.0,0.6647
470.0,0.6435
471.0,0.6429
472.0,0.6774
473.0,0.6687
474.0,0.6693
475.0,0.6746
476.0,0.6538
477.0,0.6553
478.0,0.6737
479.0,0.67
480.0,0.6716
481.0,0.6847
482.0,0.6889
483.0,0.6813
484.0,0.6677
485.0,0.6366
486.0,0.5569
487.0,0.5841
488.0,0.6408
489.0,0.6426
490.0,0.6764
491.0,0.665
492.0,0.6281
493.0,0.6487
494.0,0.6554
495.0,0.661
496.0,0.6651
497.0,0.6754
498.0,0.6438
499.0,0.6518
500.0,0.6325
501.0,0.6205
502.0,0.6111
503.0,0.6352
504.0,0.6168
505.0,0.6408
506.0,0.6614
507.0,0.6295
508.0,0.6106
509.0,0.6283
510.0,0.6254
511.0,0.6427
512.0,0.6499
513.0,0.6153
514.0,0.6112
515.0,0.6052
516.0,0.6036
517.0,0.5365
518.0,0.564
519.0,0.5915
520.0,0.613
521.0,0.6187
522.0,0.6191
523.0,0.6078
524.0,0.6291
525.0,0.636
526.0,0.6073
527.0,0.5718
528.0,0.6044
529.0,0.6368
530.0,0.6274
531.0,0.6365
532.0,0.6146
533.0,0.5966
534.0,0.6144
535.0,0.6281
536.0,0.6341
537.0,0.6094
538.0,0.6203
539.0,0.615
540.0,0.5895
541.0,0.5928
542.0,0.611
543.0,0.6051
544.0,0.615
545.0,0.6133
546.0,0.6154
547.0,0.6156
548.0,0.6085
549.0,0.6105
550.0,0.6178
551.0,0.6104
552.0,0.6147
553.0,0.6036
554.0,0.618
555.0,0.619
556.0,0.6109
557.0,0.5917
558.0,0.5869
559.0,0.5756
560.0,0.5825
561.0,0.5897
562.0,0.585
563.0,0.6005
564.0,0.5838
565.0,0.5784
566.0,0.5696
567.0,0.5799
568.0,0.5735
569.0,0.5576
570.0,0.5578
571.0,0.555
572.0,0.5668
573.0,0.5726
574.0,0.5704
575.0,0.5592
576.0,0.5541
577.0,0.5604
578.0,0.5527
579.0,0.5559
580.0,0.5682
581.0,0.5724
582.0,0.5843
583.0,0.5867
584.0,0.5924
585.0,0.5783
586.0,0.5664
587.0,0.5782
588.0,0.5612
589.0,0.4916
590.0,0.5146
591.0,0.5479
592.0,0.539
593.0,0.5495
594.0,0.5446
595.0,0.5292
596.0,0.5546
597.0,0.5474
598.0,0.5474
599.0,0.5485
600.0,0.5505
601.0,0.5469
602.0,0.5433
603.0,0.5527
604.0,0.5621
605.0,0.5595
606.0,0.5577
607.0,0.5638
608.0,0.558
609.0,0.5594
610.0,0.5559
611.0,0.5591
612.0,0.5578
613.0,0.551
614.0,0.5439
615.0,0.5562
616.0,0.5382
617.0,0.5374
618.0,0.5583
619.0,0.5528
620.0,0.5563
621.0,0.5564
622.0,0.5496
623.0,0.5409
624.0,0.5319
625.0,0.5307
626.0,0.5385
627.0,0.5435
628.0,0.4948
629.0,0.5262
630.0,0.5136
631.0,0.5295
632.0,0.524
633.0,0.5418
634.0,0.5379
635.0,0.547
636.0,0.5406
637.0,0.5501
638.0,0.5563
639.0,0.5506
640.0,0.5459
641.0,0.546
642.0,0.5441
643.0,0.5514
644.0,0.5502
645.0,0.5508
646.0,0.5364
647.0,0.5265
648.0,0.527
649.0,0.5164
650.0,0.5234
651.0,0.5469
652.0,0.5195
653.0,0.5399
654.0,0.5343
655.0,0.5121
656.0,0.4555
657.0,0.468
658.0,0.5259
659.0,0.5303
660.0,0.5328
661.0,0.5367
662.0,0.5369
663.0,0.5266
664.0,0.5342
665.0,0.5356
666.0,0.5364
667.0,0.5364
668.0,0.5372
669.0,0.5458
670.0,0.5437
671.0,0.5438
672.0,0.5393
673.0,0.5477
674.0,0.5458
675.0,0.5411
676.0,0.545
677.0,0.5397
678.0,0.5415
679.0,0.5329
680.0,0.5372
681.0,0.5338
682.0,0.5331
683.0,0.5321
684.0,0.5295
685.0,0.5342
686.0,0.5308
687.0,0.2988
688.0,0.3742
689.0,0.3764
690.0,0.4033
691.0,0.4345
692.0,0.4585
693.0,0.4541
694.0,0.451
695.0,0.4765
696.0,0.4774
697.0,0.5146
698.0,0.5065
699.0,0.489
700.0,0.4828
701.0,0.4759
702.0,0.4813
703.0,0.4826
704.0,0.5013
705.0,0.502
706.0,0.5028
707.0,0.5037
708.0,0.5046
709.0,0.5075
710.0,0.5064
711.0,0.5065
712.0,0.5059
713.0,0.4999
714.0,0.5021
715.0,0.484
716.0,0.4838
717.0,0.3999
718.0,0.3652
719.0,0.3329
720.0,0.3468
721.0,0.3943
722.0,0.4635
723.0,0.4253
724.0,0.3757
725.0,0.3671
726.0,0.3851
727.0,0.3955
728.0,0.3653
729.0,0.3859
730.0,0.4073
731.0,0.3881
732.0,0.4224
733.0,0.4539
734.0,0.4668
735.0,0.456
736.0,0.4553
737.0,0.4571
738.0,0.4692
739.0,0.46
740.0,0.4735
741.0,0.4697
742.0,0.4711
743.0,0.4834
744.0,0.4826
745.0,0.4832
746.0,0.4854
747.0,0.4866
748.0,0.4856
749.0,0.4801
750.0,0.4799
751.0,0.4751
752.0,0.4772
753.0,0.4797
754.0,0.4807
755.0,0.478
756.0,0.4779
757.0,0.4785
758.0,0.4725
759.0,0.4597
760.0,0.03731
761.0,0.01524
762.0,0.1805
763.0,0.06754
764.0,0.12
765.0,0.1803
766.0,0.2449
767.0,0.3354
768.0,0.4099
769.0,0.4239
770.0,0.4444
771.0,0.4507
772.0,0.4525
773.0,0.4559
774.0,0.4539
775.0,0.4506
776.0,0.4561
777.0,0.4502
778.0,0.4474
779.0,0.4478
780.0,0.4453
781.0,0.4458
782.0,0.4487
783.0,0.4409
784.0,0.4432
785.0,0.4397
786.0,0.4443
787.0,0.4341
788.0,0.4275
789.0,0.4272
790.0,0.4124
791.0,0.4194
792.0,0.4168
793.0,0.4097
794.0,0.4202
795.0,0.4263
796.0,0.4085
797.0,0.4087
798.0,0.4253
799.0,0.4217
800.0,0.4132
801.0,0.4108
802.0,0.4096
803.0,0.4059
804.0,0.407
805.0,0.4071
806.0,0.4209
807.0,0.4153
808.0,0.4159
809.0,0.4063
810.0,0.4018
811.0,0.3997
812.0,0.3852
813.0,0.3756
814.0,0.321
815.0,0.3195
816.0,0.2963
817.0,0.3025
818.0,0.289
819.0,0.3312
820.0,0.309
821.0,0.3729
822.0,0.3604
823.0,0.2271
824.0,0.3455
825.0,0.3663
826.0,0.3487
827.0,0.3718
828.0,0.3041
829.0,0.3473
830.0,0.3418
831.0,0.3431
832.0,0.3306
833.0,0.357
834.0,0.3408
835.0,0.3825
836.0,0.3608
837.0,0.3838
838.0,0.3692
839.0,0.3786
840.0,0.3876
841.0,0.3809
842.0,0.3835
843.0,0.3852
844.0,0.3788
845.0,0.393
846.0,0.3916
847.0,0.3848
848.0,0.3816
849.0,0.3708
850.0,0.3553
851.0,0.3753
852.0,0.3731
853.0,0.3598
854.0,0.3101
855.0,0.3415
856.0,0.3729
857.0,0.3817
858.0,0.3787
859.0,0.3794
860.0,0.3803
861.0,0.3782
862.0,0.3842
863.0,0.3933
864.0,0.3737
865.0,0.3705
866.0,0.3331
867.0,0.3477
868.0,0.3784
869.0,0.3706
870.0,0.3812
871.0,0.376
872.0,0.3747
873.0,0.3739
874.0,0.3695
875.0,0.362
876.0,0.3657
877.0,0.3695
878.0,0.3733
879.0,0.3676
880.0,0.3597
881.0,0.3539
882.0,0.3614
883.0,0.363
884.0,0.3611
885.0,0.3639
886.0,0.3452
887.0,0.3501
888.0,0.3546
889.0,0.3599
890.0,0.3553
891.0,0.3555
892.0,0.3431
893.0,0.3302
894.0,0.314
895.0,0.291
896.0,0.2725
897.0,0.2273
898.0,0.2515
899.0,0.1836
900.0,0.2619
901.0,0.1924
902.0,0.2362
903.0,0.2349
904.0,0.3116
905.0,0.2988
906.0,0.2778
907.0,0.2149
908.0,0.2211
909.0,0.244
910.0,0.2073
911.0,0.2269
912.0,0.2382
913.0,0.2099
914.0,0.2099
915.0,0.2271
916.0,0.1908
917.0,0.2506
918.0,0.195
919.0,0.2579
920.0,0.2663
921.0,0.277
922.0,0.2414
923.0,0.2682
924.0,0.2461
925.0,0.241
926.0,0.2428
927.0,0.278
928.0,0.1864
929.0,0.1655
930.0,0.1228
931.0,0.1168
932.0,0.0768
933.0,0.05913
934.0,0.02582
935.0,0.06315
936.0,0.03505
937.0,0.03524
938.0,0.04493
939.0,0.113
940.0,0.1414
941.0,0.09974
942.0,0.1193
943.0,0.07317
944.0,0.08231
945.0,0.1043
946.0,0.04608
947.0,0.1029
948.0,0.07483
949.0,0.1447
950.0,0.03047
951.0,0.1436
952.0,0.06823
953.0,0.09403
954.0,0.122
955.0,0.09581
956.0,0.09881
957.0,0.06773
958.0,0.1482
959.0,0.1095
960.0,0.1228
961.0,0.1443
962.0,0.136
963.0,0.1625
964.0,0.1472
965.0,0.162
966.0,0.161
967.0,0.1596
968.0,0.2357
969.0,0.2433
970.0,0.2212
971.0,0.2628
972.0,0.2494
973.0,0.2074
974.0,0.1959
975.0,0.2068
976.0,0.191
977.0,0.2283
978.0,0.2123
979.0,0.2252
980.0,0.2102
981.0,0.2616
982.0,0.2465
983.0,0.2347
984.0,0.2739
985.0,0.2455
986.0,0.2814
987.0,0.2727
988.0,0.2724
989.0,0.2822
990.0,0.2706
991.0,0.2827
992.0,0.2847
993.0,0.2753
994.0,0.2849
995.0,0.285
996.0,0.2833
997.0,0.2839
998.0,0.2824
999.0,0.2815
1000.0,0.2788
1001.0,0.2831
1002.0,0.2723
1003.0,0.2779
1004.0,0.2703
1005.0,0.2615
1006.0,0.2712
1007.0,0.2772
1008.0,0.2752
1009.0,0.2731
1010.0,0.2717
1011.0,0.2759
1012.0,0.2729
1013.0,0.2754
1014.0,0.2735
1015.0,0.2716
1016.0,0.2703
1017.0,0.2708
1018.0,0.2702
1019.0,0.2633
1020.0,0.2686
1021.0,0.2684
1022.0,0.2659
1023.0,0.2687
1024.0,0.264
1025.0,0.2689
1026.0,0.2674
1027.0,0.2669
1028.0,0.2662
1029.0,0.263
1030.0,0.2652
1031.0,0.264
1032.0,0.2633
1033.0,0.2593
1034.0,0.2594
1035.0,0.2602
1036.0,0.2614
1037.0,0.2572
1038.0,0.2583
1039.0,0.2581
1040.0,0.257
1041.0,0.2579
1042.0,0.2561
1043.0,0.2552
1044.0,0.2561
1045.0,0.2525
1046.0,0.2497
1047.0,0.2518
1048.0,0.2531
1049.0,0.2521
1050.0,0.2508
1051.0,0.2504
1052.0,0.2492
1053.0,0.2471
1054.0,0.2475
1055.0,0.2475
1056.0,0.2464
1057.0,0.2455
1058.0,0.2393
1059.0,0.2394
1060.0,0.2389
1061.0,0.2385
1062.0,0.2396
1063.0,0.2371
1064.0,0.2399
1065.0,0.2378
1066.0,0.2334
1067.0,0.2363
1068.0,0.2308
1069.0,0.2239
1070.0,0.2312
1071.0,0.2359
1072.0,0.2324
1073.0,0.2292
1074.0,0.2363
1075.0,0.2214
1076.0,0.2359
1077.0,0.23
1078.0,0.2248
1079.0,0.2327
1080.0,0.2265
1081.0,0.2177
1082.0,0.2238
1083.0,0.2252
1084.0,0.2165
1085.0,0.2273
1086.0,0.2032
1087.0,0.2126
1088.0,0.2244
1089.0,0.2146
1090.0,0.2083
1091.0,0.2229
1092.0,0.2229
1093.0,0.1811
1094.0,0.203
1095.0,0.1893
1096.0,0.179
1097.0,0.2178
1098.0,0.1751
1099.0,0.1839
1100.0,0.1678
1101.0,0.1709
1102.0,0.1611
1103.0,0.158
1104.0,0.1584
1105.0,0.179
1106.0,0.1243
1107.0,0.1676
1108.0,0.1346
1109.0,0.1362
1110.0,0.1647
1111.0,0.1019
1112.0,0.1357
1113.0,0.07669
1114.0,0.08631
1115.0,0.07093
1116.0,0.05138
1117.0,0.01407
1118.0,0.05733
1119.0,0.02416
1120.0,0.02987
1121.0,0.04198
1122.0,0.01426
1123.0,0.02718
1124.0,0.02288
1125.0,0.03092
1126.0,0.007577
1127.0,0.03519
1128.0,0.01738
1129.0,0.01884
1130.0,0.01151
1131.0,0.07664
1132.0,0.05818
1133.0,0.03155
1134.0,0.005728
1135.0,0.002301
1136.0,0.02453
1137.0,0.07323
1138.0,0.05064
1139.0,0.08705
1140.0,0.0683
1141.0,0.04825
1142.0,0.05764
1143.0,0.08683
1144.0,0.02524
1145.0,0.03045
1146.0,0.03278
1147.0,0.008379
1148.0,0.07462
1149.0,0.05633
1150.0,0.02805
1151.0,0.05023
1152.0,0.06573
1153.0,0.06715
1154.0,0.02955
1155.0,0.09063
1156.0,0.07926
1157.0,0.09343
1158.0,0.09227
1159.0,0.1022
1160.0,0.08489
1161.0,0.1111
1162.0,0.111
1163.0,0.1616
1164.0,0.1344
1165.0,0.1226
1166.0,0.1251
1167.0,0.1383
1168.0,0.1389
1169.0,0.1434
1170.0,0.1594
1171.0,0.1552
1172.0,0.1603
1173.0,0.1591
1174.0,0.1054
1175.0,0.1574
1176.0,0.1778
1177.0,0.1674
1178.0,0.1195
1179.0,0.1793
1180.0,0.1549
1181.0,0.1601
1182.0,0.1036
1183.0,0.1587
1184.0,0.1464
1185.0,0.1391
1186.0,0.1721
1187.0,0.1616
1188.0,0.1042
1189.0,0.1502
1190.0,0.1686
1191.0,0.1557
1192.0,0.1714
1193.0,0.1627
1194.0,0.1687
1195.0,0.1566
1196.0,0.1491
1197.0,0.1701
1198.0,0.1541
1199.0,0.1249
1200.0,0.1605
1201.0,0.1526
1202.0,0.1535
1203.0,0.1513
1204.0,0.1295
1205.0,0.1588
1206.0,0.1785
1207.0,0.1522
1208.0,0.1517
1209.0,0.1552
1210.0,0.1631
1211.0,0.1531
1212.0,0.148
1213.0,0.1711
1214.0,0.1528
1215.0,0.1495
1216.0,0.1708
1217.0,0.1652
1218.0,0.1693
1219.0,0.1666
1220.0,0.1696
1221.0,0.172
1222.0,0.167
1223.0,0.1649
1224.0,0.1628
1225.0,0.1708
1226.0,0.1728
1227.0,0.1562
1228.0,0.1744
1229.0,0.1728
1230.0,0.1693
1231.0,0.1762
1232.0,0.1751
1233.0,0.1663
1234.0,0.1766
1235.0,0.1751
1236.0,0.1767
1237.0,0.1731
1238.0,0.1761
1239.0,0.1738
1240.0,0.1746
1241.0,0.1731
1242.0,0.1733
1243.0,0.172
1244.0,0.173
1245.0,0.1738
1246.0,0.1729
1247.0,0.172
1248.0,0.1715
1249.0,0.1724
1250.0,0.1711
1251.0,0.1685
1252.0,0.1691
1253.0,0.1667
1254.0,0.1643
1255.0,0.1686
1256.0,0.1621
1257.0,0.1609
1258.0,0.1653
1259.0,0.1565
1260.0,0.1577
1261.0,0.1454
1262.0,0.1393
1263.0,0.1395
1264.0,0.1247
1265.0,0.1386
1266.0,0.131
1267.0,0.135
1268.0,0.1254
1269.0,0.06248
1270.0,0.1338
1271.0,0.1454
1272.0,0.1462
1273.0,0.1443
1274.0,0.1453
1275.0,0.148
1276.0,0.1501
1277.0,0.152
1278.0,0.1563
1279.0,0.1547
1280.0,0.1529
1281.0,0.1465
1282.0,0.1422
1283.0,0.153
1284.0,0.1564
1285.0,0.1576
1286.0,0.1603
1287.0,0.1568
1288.0,0.1571
1289.0,0.15
1290.0,0.1558
1291.0,0.1584
1292.0,0.1449
1293.0,0.1544
1294.0,0.1531
1295.0,0.1512
1296.0,0.1419
1297.0,0.1325
1298.0,0.1464
1299.0,0.1549
1300.0,0.1249
1301.0,0.1299
1302.0,0.146
1303.0,0.1239
1304.0,0.1
1305.0,0.1427
1306.0,0.1421
1307.0,0.1043
1308.0,0.1251
1309.0,0.1402
1310.0,0.1018
1311.0,0.1186
1312.0,0.1146
1313.0,0.1111
1314.0,0.09742
1315.0,0.09485
1316.0,0.1157
1317.0,0.1088
1318.0,0.1207
1319.0,0.08753
1320.0,0.08622
1321.0,0.1028
1322.0,0.1026
1323.0,0.0717
1324.0,0.0861
1325.0,0.1134
1326.0,0.09387
1327.0,0.08857
1328.0,0.0745
1329.0,0.05122
1330.0,0.06911
1331.0,0.03658
1332.0,0.03934
1333.0,0.05576
1334.0,0.05041
1335.0,0.07108
1336.0,0.05329
1337.0,0.04613
1338.0,0.04967
1339.0,0.05018
1340.0,0.05032
1341.0,0.04558
1342.0,0.04829
1343.0,0.0268
1344.0,0.01659
1345.0,0.02372
1346.0,0.008736
1347.0,0.008375
1348.0,0.0002859
1349.0,0.001206
1350.0,0.001404
1351.0,0.0001885
1352.0,2.413e-05
1353.0,6.762e-07
1354.0,3.685e-06
1355.0,7.755e-09
1356.0,3.231e-07
1357.0,4.921e-07
1358.0,9.657e-09
1359.0,5.065e-10
1360.0,3.139e-09
1361.0,1.061e-12
1362.0,2.52e-15
1363.0,2.892e-09
1364.0,1.277e-09
1365.0,8.085e-16
1366.0,1.561e-08
1367.0,8.442e-09
1368.0,6.084e-18
1369.0,4.697e-10
1370.0,1.68e-10
1371.0,7.348e-12
1372.0,4.776e-09
1373.0,1.799e-07
1374.0,1.355e-06
1375.0,2.198e-06
1376.0,3.425e-06
1377.0,1.431e-06
1378.0,1.57e-05
1379.0,6.106e-07
1380.0,6.124e-07
1381.0,1.318e-08
1382.0,3.793e-09
1383.0,4.522e-11
1384.0,4.497e-10
1385.0,5.991e-09
1386.0,2.528e-09
1387.0,9.396e-07
1388.0,2.296e-08
1389.0,5.933e-06
1390.0,4.844e-06
1391.0,3.076e-06
1392.0,1.885e-07
1393.0,1.271e-06
1394.0,2.696e-07
1395.0,1.348e-09
1396.0,1.561e-12
1397.0,4.19e-07
1398.0,1.619e-05
1399.0,1.07e-05
1400.0,5.639e-13
1401.0,3.016e-12
1402.0,6.708e-05
1403.0,7.123e-05
1404.0,1.998e-05
1405.0,4.608e-10
1406.0,3.909e-05
1407.0,4.846e-06
1408.0,3.39e-05
1409.0,7.398e-06
1410.0,8.69e-06
1411.0,6.495e-05
1412.0,0.0001081
1413.0,0.001884
1414.0,7.337e-06
1415.0,2.933e-06
1416.0,0.004647
1417.0,0.0009995
1418.0,0.0009836
1419.0,0.000141
1420.0,0.0005934
1421.0,0.0007068
1422.0,0.006097
1423.0,0.001097
1424.0,0.002216
1425.0,0.002947
1426.0,0.003995
1427.0,0.008691
1428.0,0.0002501
1429.0,0.005704
1430.0,0.01189
1431.0,0.01361
1432.0,0.0001923
