interpolation:linear
wavelength,value
280.0,1.9609999999999997e-22
280.5,6.48e-21
281.0,3.4800000000000006e-20
281.5,3.868e-19
282.0,6.045e-19
282.5,1.496e-18
283.0,4.732e-18
283.5,7.709e-18
284.0,1.274e-16
284.5,3.722e-16
285.0,6.109e-16
285.5,3.047e-15
286.0,1.229e-14
286.5,5.544e-14
287.0,1.593e-13
287.5,6.156e-13
288.0,2.173e-12
288.5,6.476e-12
289.0,1.709e-11
289.5,5.132e-11
290.0,1.421e-10
290.5,2.893e-10
291.0,6.206e-10
291.5,1.781e-09
292.0,3.571e-09
292.5,5.011e-09
293.0,1.075e-08
293.5,2.618e-08
294.0,4.096e-08
294.5,5.591e-08
295.0,9.477e-08
295.5,1.567e-07
296.0,3.032e-07
296.5,4.254e-07
297.0,5.77e-07
297.5,1.555e-06
298.0,2.461e-06
298.5,2.484e-06
299.0,5.496e-06
299.5,9.19e-06
300.0,1.014e-05
300.5,1.474e-05
301.0,2.683e-05
301.5,4.291e-05
302.0,3.673e-05
302.5,7.361e-05
303.0,0.0001372
303.5,0.0001783
304.0,0.0001735
304.5,0.0002849
305.0,0.000496
305.5,0.0006214
306.0,0.0006229
306.5,0.0008229
307.0,0.001395
307.5,0.002113
308.0,0.00228
308.5,0.002876
309.0,0.003034
309.5,0.00392
310.0,0.004163
310.5,0.006931
311.0,0.009101
311.5,0.008958
312.0,0.00987
312.5,0.0128
313.0,0.01436
313.5,0.01352
314.0,0.01824
314.5,0.01788
315.0,0.02392
315.5,0.01906
316.0,0.01806
316.5,0.02781
317.0,0.03448
317.5,0.03517
318.0,0.02878
318.5,0.03913
319.0,0.0486
319.5,0.03681
320.0,0.04399
320.5,0.06039
321.0,0.05842
321.5,0.05649
322.0,0.05509
322.5,0.04815
323.0,0.05081
323.5,0.06612
324.0,0.07792
324.5,0.07724
325.0,0.06461
325.5,0.08708
326.0,0.1083
326.5,0.1119
327.0,0.1102
327.5,0.105
328.0,0.08974
328.5,0.09912
329.0,0.1235
329.5,0.1419
330.0,0.1418
330.5,0.1101
331.0,0.1111
331.5,0.1155
332.0,0.129
332.5,0.1295
333.0,0.1281
333.5,0.1132
334.0,0.1155
334.5,0.137
335.0,0.1309
335.5,0.1536
336.0,0.1063
336.5,0.123
337.0,0.09982
337.5,0.1237
338.0,0.1236
338.5,0.1437
339.0,0.1424
339.5,0.137
340.0,0.16
340.5,0.1446
341.0,0.1418
341.5,0.1306
342.0,0.1562
342.5,0.1464
343.0,0.1608
343.5,0.1513
344.0,0.1113
344.5,0.1128
345.0,0.1499
345.5,0.1533
346.0,0.1305
346.5,0.1479
347.0,0.1587
347.5,0.1283
348.0,0.1466
348.5,0.1468
349.0,0.1363
349.5,0.135
350.0,0.1672
350.5,0.1764
351.0,0.1575
351.5,0.1529
352.0,0.1645
352.5,0.1286
353.0,0.1622
353.5,0.1737
354.0,0.1804
354.5,0.1831
355.0,0.1825
355.5,0.165
356.0,0.1728
356.5,0.1477
357.0,0.122
357.5,0.1495
358.0,0.1185
358.5,0.1014
359.0,0.1418
359.5,0.1807
360.0,0.1917
360.5,0.1533
361.0,0.1399
361.5,0.1613
362.0,0.1397
362.5,0.1936
363.0,0.1741
363.5,0.1605
364.0,0.1965
364.5,0.168
365.0,0.1712
365.5,0.2151
366.0,0.2281
366.5,0.2146
367.0,0.2091
367.5,0.2171
368.0,0.1902
368.5,0.192
369.0,0.2075
369.5,0.2214
370.0,0.2362
370.5,0.1835
371.0,0.1962
371.5,0.2456
372.0,0.1631
372.5,0.1957
373.0,0.1993
373.5,0.1298
374.0,0.1887
374.5,0.1564
375.0,0.1522
375.5,0.2273
376.0,0.1885
376.5,0.1955
377.0,0.2072
377.5,0.2425
378.0,0.2631
378.5,0.2488
379.0,0.2054
379.5,0.1877
380.0,0.1952
380.5,0.2367
381.0,0.2374
381.5,0.1884
382.0,0.1675
382.5,0.143
383.0,0.1325
383.5,0.1277
384.0,0.141
384.5,0.2076
385.0,0.206
385.5,0.192
386.0,0.1646
386.5,0.2165
387.0,0.18
387.5,0.2023
388.0,0.1869
388.5,0.1849
389.0,0.1998
389.5,0.2421
390.0,0.2432
390.5,0.224
391.0,0.2639
391.5,0.2693
392.0,0.227
392.5,0.2034
393.0,0.1133
393.5,0.08242
394.0,0.1678
394.5,0.2136
395.0,0.2608
395.5,0.265
396.0,0.23
396.5,0.1346
397.0,0.1011
397.5,0.2057
398.0,0.2882
398.5,0.2981
399.0,0.3232
399.5,0.3224
400.0,0.3348
401.0,0.3373
402.0,0.3566
403.0,0.3393
404.0,0.3345
405.0,0.3349
406.0,0.33
407.0,0.3253
408.0,0.3382
409.0,0.3624
410.0,0.3172
411.0,0.3441
412.0,0.3703
413.0,0.3614
414.0,0.3664
415.0,0.3679
416.0,0.375
417.0,0.3662
418.0,0.3598
419.0,0.3651
420.0,0.3638
421.0,0.3811
422.0,0.3626
423.0,0.3546
424.0,0.3753
425.0,0.3751
426.0,0.3662
427.0,0.3597
428.0,0.3507
429.0,0.3329
430.0,0.2917
431.0,0.2892
432.0,0.374
433.0,0.3765
434.0,0.3498
435.0,0.3655
436.0,0.4126
437.0,0.4078
438.0,0.3718
439.0,0.3841
440.0,0.3969
441.0,0.4118
442.0,0.442
443.0,0.4304
444.0,0.4404
445.0,0.431
446.0,0.4122
447.0,0.4465
448.0,0.4532
449.0,0.456
450.0,0.4693
451.0,0.487
452.0,0.4697
453.0,0.4422
454.0,0.4624
455.0,0.4653
456.0,0.4768
457.0,0.4848
458.0,0.468
459.0,0.4658
460.0,0.467
461.0,0.478
462.0,0.4823
463.0,0.4791
464.0,0.4721
465.0,0.4671
466.0,0.4723
467.0,0.4635
468.0,0.4691
469.0,0.4716
470.0,0.4566
471.0,0.4562
472.0,0.4808
473.0,0.4746
474.0,0.4748
475.0,0.4782
476.0,0.4631
477.0,0.4638
478.0,0.477
479.0,0.4746
480.0,0.476
481.0,0.4856
482.0,0.489
483.0,0.484
484.0,0.4747
485.0,0.4529
486.0,0.3966
487.0,0.4162
488.0,0.4566
489.0,0.4578
490.0,0.4822
491.0,0.4743
492.0,0.448
493.0,0.4628
494.0,0.4676
495.0,0.4717
496.0,0.4747
497.0,0.482
498.0,0.4593
499.0,0.4649
500.0,0.4508
501.0,0.442
502.0,0.4347
503.0,0.4512
504.0,0.4366
505.0,0.4548
506.0,0.4695
507.0,0.4469
508.0,0.434
509.0,0.447
510.0,0.4453
511.0,0.4579
512.0,0.4633
513.0,0.4386
514.0,0.4359
515.0,0.4316
516.0,0.4304
517.0,0.3826
518.0,0.4022
519.0,0.4218
520.0,0.437
521.0,0.441
522.0,0.4411
523.0,0.433
524.0,0.4479
525.0,0.4523
526.0,0.4318
527.0,0.4062
528.0,0.429
529.0,0.4518
530.0,0.445
531.0,0.4513
532.0,0.4356
533.0,0.4229
534.0,0.4356
535.0,0.4455
536.0,0.45
537.0,0.4326
538.0,0.4404
539.0,0.4367
540.0,0.4185
541.0,0.4203
542.0,0.433
543.0,0.4292
544.0,0.4358
545.0,0.4346
546.0,0.4358
547.0,0.4362
548.0,0.4314
549.0,0.4329
550.0,0.4381
551.0,0.433
552.0,0.436
553.0,0.428
554.0,0.4382
555.0,0.4388
556.0,0.433
557.0,0.4192
558.0,0.4155
559.0,0.4072
560.0,0.412
561.0,0.4168
562.0,0.4132
563.0,0.4238
564.0,0.4116
565.0,0.4076
566.0,0.4011
567.0,0.408
568.0,0.4027
569.0,0.3899
570.0,0.3902
571.0,0.3887
572.0,0.3959
573.0,0.3997
574.0,0.3979
575.0,0.3897
576.0,0.3862
577.0,0.3908
578.0,0.3858
579.0,0.3889
580.0,0.3987
581.0,0.4025
582.0,0.4118
583.0,0.4141
584.0,0.4186
585.0,0.4089
586.0,0.4006
587.0,0.4083
588.0,0.3944
589.0,0.3417
590.0,0.3579
591.0,0.3834
592.0,0.3758
593.0,0.385
594.0,0.3808
595.0,0.3684
596.0,0.3894
597.0,0.3835
598.0,0.3845
599.0,0.3857
600.0,0.3879
601.0,0.3859
602.0,0.3835
603.0,0.3905
604.0,0.3973
605.0,0.3957
606.0,0.3947
607.0,0.3994
608.0,0.3957
609.0,0.397
610.0,0.3949
611.0,0.3974
612.0,0.3967
613.0,0.3921
614.0,0.3874
615.0,0.3964
616.0,0.3838
617.0,0.3834
618.0,0.3986
619.0,0.3947
620.0,0.3972
621.0,0.3971
622.0,0.392
623.0,0.3856
624.0,0.3795
625.0,0.3786
626.0,0.384
627.0,0.3868
628.0,0.343
629.0,0.3712
630.0,0.362
631.0,0.3764
632.0,0.3731
633.0,0.3871
634.0,0.3854
635.0,0.3924
636.0,0.3884
637.0,0.3957
638.0,0.401
639.0,0.3972
640.0,0.3943
641.0,0.3947
642.0,0.3937
643.0,0.3991
644.0,0.3986
645.0,0.3988
646.0,0.3873
647.0,0.3776
648.0,0.3782
649.0,0.3701
650.0,0.3785
651.0,0.3961
652.0,0.3731
653.0,0.3913
654.0,0.3874
655.0,0.3697
656.0,0.33
657.0,0.3393
658.0,0.3823
659.0,0.3859
660.0,0.388
661.0,0.391
662.0,0.3906
663.0,0.3833
664.0,0.3897
665.0,0.3915
666.0,0.3924
667.0,0.3927
668.0,0.3937
669.0,0.4002
670.0,0.3988
671.0,0.3991
672.0,0.396
673.0,0.4023
674.0,0.4011
675.0,0.3978
676.0,0.4008
677.0,0.3971
678.0,0.3985
679.0,0.3923
680.0,0.3956
681.0,0.3931
682.0,0.3926
683.0,0.3919
684.0,0.39
685.0,0.3936
686.0,0.3909
687.0,0.1854
688.0,0.2486
689.0,0.2507
690.0,0.2746
691.0,0.3031
692.0,0.3259
693.0,0.3226
694.0,0.3217
695.0,0.3447
696.0,0.3457
697.0,0.3779
698.0,0.3718
699.0,0.3553
700.0,0.3506
701.0,0.344
702.0,0.3494
703.0,0.3508
704.0,0.3667
705.0,0.3671
706.0,0.3686
707.0,0.3696
708.0,0.3702
709.0,0.3739
710.0,0.3722
711.0,0.3728
712.0,0.3732
713.0,0.368
714.0,0.3699
715.0,0.355
716.0,0.3544
717.0,0.2799
718.0,0.2549
719.0,0.2314
720.0,0.2395
721.0,0.2798
722.0,0.337
723.0,0.3055
724.0,0.2649
725.0,0.2575
726.0,0.2703
727.0,0.2811
728.0,0.2556
729.0,0.2746
730.0,0.2883
731.0,0.2742
732.0,0.3034
733.0,0.3303
734.0,0.3412
735.0,0.3325
736.0,0.3316
737.0,0.3331
738.0,0.3457
739.0,0.339
740.0,0.3501
741.0,0.3479
742.0,0.3497
743.0,0.359
744.0,0.3588
745.0,0.3597
746.0,0.3613
747.0,0.3623
748.0,0.3616
749.0,0.3576
750.0,0.3574
751.0,0.3538
752.0,0.3555
753.0,0.3574
754.0,0.3582
755.0,0.3561
756.0,0.3561
757.0,0.3565
758.0,0.3519
759.0,0.3399
760.0,0.01387
761.0,0.004753
762.0,0.1018
763.0,0.02896
764.0,0.06007
765.0,0.1016
766.0,0.1527
767.0,0.2273
768.0,0.2948
769.0,0.3089
770.0,0.3285
771.0,0.3353
772.0,0.3373
773.0,0.34
774.0,0.3387
775.0,0.3363
776.0,0.3405
777.0,0.3361
778.0,0.334
779.0,0.3343
780.0,0.3325
781.0,0.3329
782.0,0.3351
783.0,0.3294
784.0,0.3311
785.0,0.3283
786.0,0.3316
787.0,0.3221
788.0,0.3164
789.0,0.3162
790.0,0.3029
791.0,0.3104
792.0,0.3089
793.0,0.3034
794.0,0.3135
795.0,0.3175
796.0,0.3008
797.0,0.3006
798.0,0.3163
799.0,0.313
800.0,0.3059
801.0,0.3033
802.0,0.3023
803.0,0.2991
804.0,0.3003
805.0,0.3015
806.0,0.3134
807.0,0.3089
808.0,0.3094
809.0,0.301
810.0,0.2969
811.0,0.2938
812.0,0.2805
813.0,0.2728
814.0,0.2274
815.0,0.227
816.0,0.2096
817.0,0.2141
818.0,0.2032
819.0,0.2379
820.0,0.2203
821.0,0.2737
822.0,0.2633
823.0,0.1552
824.0,0.2494
825.0,0.2691
826.0,0.2535
827.0,0.2729
828.0,0.2159
829.0,0.2531
830.0,0.2486
831.0,0.2495
832.0,0.239
833.0,0.2614
834.0,0.2474
835.0,0.2833
836.0,0.2632
837.0,0.2842
838.0,0.2713
839.0,0.2805
840.0,0.2876
841.0,0.2819
842.0,0.2851
843.0,0.2878
844.0,0.2823
845.0,0.2938
846.0,0.293
847.0,0.2884
848.0,0.2853
849.0,0.2772
850.0,0.2657
851.0,0.28
852.0,0.2787
853.0,0.2693
854.0,0.2316
855.0,0.2557
856.0,0.2789
857.0,0.286
858.0,0.2835
859.0,0.2843
860.0,0.2852
861.0,0.2835
862.0,0.2882
863.0,0.295
864.0,0.2803
865.0,0.278
866.0,0.25
867.0,0.2609
868.0,0.284
869.0,0.2781
870.0,0.2861
871.0,0.2822
872.0,0.2813
873.0,0.2807
874.0,0.2774
875.0,0.2717
876.0,0.2745
877.0,0.2773
878.0,0.2801
879.0,0.2759
880.0,0.27
881.0,0.2653
882.0,0.2708
883.0,0.2723
884.0,0.2708
885.0,0.2728
886.0,0.2578
887.0,0.2623
888.0,0.2652
889.0,0.27
890.0,0.2654
891.0,0.2662
892.0,0.2554
893.0,0.2446
894.0,0.2296
895.0,0.2092
896.0,0.1951
897.0,0.1589
898.0,0.1775
899.0,0.1255
900.0,0.1875
901.0,0.1314
902.0,0.1669
903.0,0.1639
904.0,0.2277
905.0,0.2172
906.0,0.2008
907.0,0.1487
908.0,0.1547
909.0,0.1729
910.0,0.1424
911.0,0.16
912.0,0.1676
913.0,0.144
914.0,0.145
915.0,0.1561
916.0,0.1309
917.0,0.1762
918.0,0.1333
919.0,0.1832
920.0,0.1932
921.0,0.2003
922.0,0.1713
923.0,0.1944
924.0,0.1733
925.0,0.1701
926.0,0.1705
927.0,0.1984
928.0,0.1238
929.0,0.1074
930.0,0.07569
931.0,0.07171
932.0,0.04342
933.0,0.032
934.0,0.0114
935.0,0.03526
936.0,0.01773
937.0,0.01784
938.0,0.02339
939.0,0.06924
940.0,0.08974
941.0,0.05978
942.0,0.07316
943.0,0.04227
944.0,0.05051
945.0,0.06341
946.0,0.02472
947.0,0.06158
948.0,0.04455
949.0,0.09033
950.0,0.01522
951.0,0.08982
952.0,0.03885
953.0,0.05638
954.0,0.07636
955.0,0.05783
956.0,0.06399
957.0,0.03846
958.0,0.09854
959.0,0.06881
960.0,0.07717
961.0,0.09419
962.0,0.0888
963.0,0.1091
964.0,0.09807
965.0,0.1084
966.0,0.1077
967.0,0.1062
968.0,0.17
969.0,0.1731
970.0,0.1567
971.0,0.1916
972.0,0.1805
973.0,0.1448
974.0,0.1366
975.0,0.1457
976.0,0.1313
977.0,0.1641
978.0,0.1498
979.0,0.1602
980.0,0.149
981.0,0.1908
982.0,0.1779
983.0,0.1683
984.0,0.2025
985.0,0.1769
986.0,0.2098
987.0,0.2016
988.0,0.2016
989.0,0.2116
990.0,0.2002
991.0,0.2118
992.0,0.2134
993.0,0.2046
994.0,0.2138
995.0,0.2142
996.0,0.2126
997.0,0.2132
998.0,0.212
999.0,0.2114
1000.0,0.2089
1001.0,0.2126
1002.0,0.2025
1003.0,0.2086
1004.0,0.2024
1005.0,0.1965
1006.0,0.2035
1007.0,0.2081
1008.0,0.2063
1009.0,0.2043
1010.0,0.203
1011.0,0.2072
1012.0,0.2046
1013.0,0.2069
1014.0,0.2055
1015.0,0.204
1016.0,0.203
1017.0,0.2033
1018.0,0.2031
1019.0,0.1971
1020.0,0.2018
1021.0,0.2018
1022.0,0.1996
1023.0,0.2016
1024.0,0.1974
1025.0,0.2021
1026.0,0.2008
1027.0,0.2004
1028.0,0.1998
1029.0,0.1973
1030.0,0.1993
1031.0,0.1982
1032.0,0.1978
1033.0,0.1948
1034.0,0.1949
1035.0,0.1955
1036.0,0.1963
1037.0,0.1932
1038.0,0.194
1039.0,0.1938
1040.0,0.1929
1041.0,0.1936
1042.0,0.1922
1043.0,0.1915
1044.0,0.1921
1045.0,0.1894
1046.0,0.1872
1047.0,0.1887
1048.0,0.1896
1049.0,0.1888
1050.0,0.1878
1051.0,0.1874
1052.0,0.1864
1053.0,0.1847
1054.0,0.1849
1055.0,0.1848
1056.0,0.1838
1057.0,0.183
1058.0,0.1783
1059.0,0.1782
1060.0,0.1778
1061.0,0.1775
1062.0,0.1781
1063.0,0.1762
1064.0,0.1783
1065.0,0.1764
1066.0,0.1734
1067.0,0.1755
1068.0,0.1712
1069.0,0.1663
1070.0,0.1715
1071.0,0.1756
1072.0,0.1725
1073.0,0.1703
1074.0,0.1763
1075.0,0.1634
1076.0,0.1759
1077.0,0.1705
1078.0,0.1662
1079.0,0.1739
1080.0,0.168
1081.0,0.1604
1082.0,0.1666
1083.0,0.1681
1084.0,0.1593
1085.0,0.1687
1086.0,0.1486
1087.0,0.1568
1088.0,0.1672
1089.0,0.158
1090.0,0.1526
1091.0,0.1656
1092.0,0.1659
1093.0,0.1304
1094.0,0.1505
1095.0,0.1363
1096.0,0.1277
1097.0,0.1621
1098.0,0.1241
1099.0,0.131
1100.0,0.118
1101.0,0.1209
1102.0,0.1126
1103.0,0.1095
1104.0,0.11
1105.0,0.1271
1106.0,0.08172
1107.0,0.1178
1108.0,0.0907
1109.0,0.09231
1110.0,0.1147
1111.0,0.06568
1112.0,0.09217
1113.0,0.04736
1114.0,0.05333
1115.0,0.04328
1116.0,0.029
1117.0,0.006305
1118.0,0.03275
1119.0,0.01204
1120.0,0.01452
1121.0,0.0213
1122.0,0.005966
1123.0,0.01328
1124.0,0.01115
1125.0,0.01559
1126.0,0.002767
1127.0,0.01785
1128.0,0.007451
1129.0,0.008177
1130.0,0.004905
1131.0,0.04382
1132.0,0.0323
1133.0,0.01528
1134.0,0.002075
1135.0,0.0008978
1136.0,0.01112
1137.0,0.04094
1138.0,0.02779
1139.0,0.05403
1140.0,0.04024
1141.0,0.02658
1142.0,0.03273
1143.0,0.05217
1144.0,0.01301
1145.0,0.01468
1146.0,0.01579
1147.0,0.003033
1148.0,0.04426
1149.0,0.03194
1150.0,0.01517
1151.0,0.02759
1152.0,0.03804
1153.0,0.04044
1154.0,0.01466
1155.0,0.05622
1156.0,0.04795
1157.0,0.05957
1158.0,0.0587
1159.0,0.06602
1160.0,0.05436
1161.0,0.0745
1162.0,0.07403
1163.0,0.1145
1164.0,0.09307
1165.0,0.08264
1166.0,0.08642
1167.0,0.09656
1168.0,0.09651
1169.0,0.1001
1170.0,0.1134
1171.0,0.1105
1172.0,0.1156
1173.0,0.1132
1174.0,0.07091
1175.0,0.1135
1176.0,0.1311
1177.0,0.1214
1178.0,0.08354
1179.0,0.1322
1180.0,0.1112
1181.0,0.1149
1182.0,0.07051
1183.0,0.1145
1184.0,0.1043
1185.0,0.09785
1186.0,0.1254
1187.0,0.1164
1188.0,0.07001
1189.0,0.108
1190.0,0.1232
1191.0,0.1109
1192.0,0.1256
1193.0,0.1183
1194.0,0.1233
1195.0,0.1124
1196.0,0.106
1197.0,0.125
1198.0,0.1126
1199.0,0.08732
1200.0,0.1167
1201.0,0.1094
1202.0,0.1115
1203.0,0.1088
1204.0,0.09176
1205.0,0.1164
1206.0,0.1327
1207.0,0.1099
1208.0,0.1108
1209.0,0.1135
1210.0,0.1202
1211.0,0.1115
1212.0,0.1053
1213.0,0.1259
1214.0,0.1096
1215.0,0.1071
1216.0,0.1261
1217.0,0.1212
1218.0,0.1249
1219.0,0.1223
1220.0,0.1252
1221.0,0.1275
1222.0,0.1235
1223.0,0.1216
1224.0,0.119
1225.0,0.1263
1226.0,0.1285
1227.0,0.114
1228.0,0.1302
1229.0,0.1286
1230.0,0.1255
1231.0,0.1321
1232.0,0.1312
1233.0,0.1227
1234.0,0.1328
1235.0,0.1314
1236.0,0.1328
1237.0,0.1294
1238.0,0.1324
1239.0,0.1306
1240.0,0.1313
1241.0,0.1297
1242.0,0.1303
1243.0,0.1293
1244.0,0.1299
1245.0,0.1307
1246.0,0.13
1247.0,0.1292
1248.0,0.1285
1249.0,0.1294
1250.0,0.1283
1251.0,0.126
1252.0,0.1269
1253.0,0.1244
1254.0,0.122
1255.0,0.1263
1256.0,0.1201
1257.0,0.1189
1258.0,0.1233
1259.0,0.1147
1260.0,0.1158
1261.0,0.1042
1262.0,0.09854
1263.0,0.0986
1264.0,0.08536
1265.0,0.09806
1266.0,0.09097
1267.0,0.09492
1268.0,0.08632
1269.0,0.03441
1270.0,0.09365
1271.0,0.1045
1272.0,0.1054
1273.0,0.1037
1274.0,0.1048
1275.0,0.1072
1276.0,0.1093
1277.0,0.1113
1278.0,0.1155
1279.0,0.1143
1280.0,0.113
1281.0,0.1088
1282.0,0.1064
1283.0,0.1143
1284.0,0.1167
1285.0,0.1177
1286.0,0.1202
1287.0,0.1167
1288.0,0.1172
1289.0,0.1103
1290.0,0.1163
1291.0,0.1186
1292.0,0.1057
1293.0,0.1149
1294.0,0.1139
1295.0,0.1114
1296.0,0.103
1297.0,0.09507
1298.0,0.1076
1299.0,0.1156
1300.0,0.08932
1301.0,0.09348
1302.0,0.1074
1303.0,0.08895
1304.0,0.06839
1305.0,0.1048
1306.0,0.1039
1307.0,0.07262
1308.0,0.09042
1309.0,0.1017
1310.0,0.07051
1311.0,0.08489
1312.0,0.08162
1313.0,0.07809
1314.0,0.06715
1315.0,0.06468
1316.0,0.08207
1317.0,0.07662
1318.0,0.08656
1319.0,0.05879
1320.0,0.05861
1321.0,0.07147
1322.0,0.07047
1323.0,0.04606
1324.0,0.05805
1325.0,0.07983
1326.0,0.06417
1327.0,0.05992
1328.0,0.04918
1329.0,0.0311
1330.0,0.04364
1331.0,0.02049
1332.0,0.02272
1333.0,0.03269
1334.0,0.03175
1335.0,0.0452
1336.0,0.03222
1337.0,0.02772
1338.0,0.02955
1339.0,0.03017
1340.0,0.03112
1341.0,0.02616
1342.0,0.02806
1343.0,0.01305
1344.0,0.008397
1345.0,0.01159
1346.0,0.00325
1347.0,0.002924
1348.0,6.138e-05
1349.0,0.0002812
1350.0,0.0003448
1351.0,3.004e-05
1352.0,2.41e-06
1353.0,7.459e-08
1354.0,3.928e-07
1355.0,1.475e-09
1356.0,3.618e-08
1357.0,5.452e-08
1358.0,1.749e-09
1359.0,2.041e-10
1360.0,7.598e-10
1361.0,8.192e-13
1362.0,2.24e-15
1363.0,9.942e-10
1364.0,4.127e-10
1365.0,7.82e-16
1366.0,4.345e-09
1367.0,1.826e-09
1368.0,6.039e-18
1369.0,1.522e-10
1370.0,7.416e-11
1371.0,4.19e-12
1372.0,9.968e-10
1373.0,2.309e-08
1374.0,1.401e-07
1375.0,2.241e-07
1376.0,3.609e-07
1377.0,1.51e-07
1378.0,1.515e-06
1379.0,6.624e-08
1380.0,6.408e-08
1381.0,1.53e-09
1382.0,8.62e-10
1383.0,1.272e-11
1384.0,1.639e-10
1385.0,8.955e-10
1386.0,7.432e-10
1387.0,1.078e-07
1388.0,2.607e-09
1389.0,5.691e-07
1390.0,4.504e-07
1391.0,2.995e-07
1392.0,1.983e-08
1393.0,1.305e-07
1394.0,3.511e-08
1395.0,2.405e-10
1396.0,1.067e-12
1397.0,4.301e-08
1398.0,1.483e-06
1399.0,1.001e-06
1400.0,4.559e-13
1401.0,1.893e-12
1402.0,1.044e-05
1403.0,9.446e-06
1404.0,2.405e-06
1405.0,1.085e-10
1406.0,3.873e-06
1407.0,7.076e-07
1408.0,3.492e-06
1409.0,6.668e-07
1410.0,9.773e-07
1411.0,8.918e-06
1412.0,1.754e-05
1413.0,0.0004256
1414.0,8.669e-07
1415.0,3.213e-07
1416.0,0.001569
1417.0,0.0002731
1418.0,0.0002108
1419.0,2.885e-05
1420.0,0.0001265
1421.0,0.000186
1422.0,0.00204
1423.0,0.0003604
1424.0,0.0007993
1425.0,0.0009417
1426.0,0.001511
1427.0,0.003597
1428.0,4.947e-05
