interpolation:linear
wavelength,value
280.0,2.47e-20
280.5,7.14e-19
281.0,3.67e-18
281.5,4.171e-19
282.0,1.699e-18
282.5,4.74e-18
283.0,1.57e-17
283.5,2.586e-17
284.0,4.103e-16
284.5,1.162e-15
285.0,1.825e-15
285.5,1.051e-14
286.0,4.391e-14
286.5,2.05e-13
287.0,5.968e-13
287.5,2.312e-12
288.0,7.463e-12
288.5,2.893e-11
289.0,9.479e-11
289.5,3.465e-10
290.0,1.108e-09
290.5,2.528e-09
291.0,6.16e-09
291.5,2.057e-08
292.0,5.667e-08
292.5,8.978e-08
293.0,2.252e-07
293.5,6.828e-07
294.0,1.26e-06
294.5,1.669e-06
295.0,3.316e-06
295.5,8.394e-06
296.0,1.624e-05
296.5,2.277e-05
297.0,3.086e-05
297.5,8.286e-05
298.0,0.0001307
298.5,0.0001315
299.0,0.0002899
299.5,0.0004806
300.0,0.0005286
300.5,0.0007656
301.0,0.001385
301.5,0.002212
302.0,0.001897
302.5,0.003611
303.0,0.006267
303.5,0.007716
304.0,0.007134
304.5,0.0102
305.0,0.01457
305.5,0.01607
306.0,0.01533
306.5,0.01864
307.0,0.02622
307.5,0.03316
308.0,0.03474
308.5,0.04003
309.0,0.03878
309.5,0.04288
310.0,0.0424
310.5,0.06813
311.0,0.08439
311.5,0.08099
312.0,0.07866
312.5,0.09388
313.0,0.1008
313.5,0.09879
314.0,0.1206
314.5,0.1037
315.0,0.1355
315.5,0.1151
316.0,0.09796
316.5,0.1376
317.0,0.1709
317.5,0.179
318.0,0.1375
318.5,0.1658
319.0,0.1939
319.5,0.1618
320.0,0.1962
320.5,0.2384
321.0,0.2067
321.5,0.1976
322.0,0.2168
322.5,0.1883
323.0,0.184
323.5,0.2222
324.0,0.2585
324.5,0.2645
325.0,0.2307
325.5,0.2923
326.0,0.3557
326.5,0.3526
327.0,0.3527
327.5,0.3423
328.0,0.3089
328.5,0.3194
329.0,0.3775
329.5,0.4268
330.0,0.4319
330.5,0.3491
331.0,0.3569
331.5,0.36
332.0,0.3847
332.5,0.3787
333.0,0.3786
333.5,0.3454
334.0,0.3543
334.5,0.4051
335.0,0.3787
335.5,0.4423
336.0,0.306
336.5,0.3593
337.0,0.2959
337.5,0.3685
338.0,0.3571
338.5,0.4121
339.0,0.4078
339.5,0.3922
340.0,0.4611
340.5,0.4153
341.0,0.4051
341.5,0.3718
342.0,0.4443
342.5,0.4156
343.0,0.4571
343.5,0.4305
344.0,0.3181
344.5,0.3214
345.0,0.4251
345.5,0.4339
346.0,0.3687
346.5,0.4175
347.0,0.4482
347.5,0.3624
348.0,0.4131
348.5,0.4128
349.0,0.3829
349.5,0.3791
350.0,0.4689
350.5,0.4946
351.0,0.4419
351.5,0.4296
352.0,0.4613
352.5,0.3599
353.0,0.4533
353.5,0.4847
354.0,0.5031
354.5,0.5102
355.0,0.5086
355.5,0.4594
356.0,0.4806
356.5,0.4104
357.0,0.3391
357.5,0.4152
358.0,0.329
358.5,0.2812
359.0,0.3933
359.5,0.5013
360.0,0.5314
360.5,0.4247
361.0,0.3872
361.5,0.4457
362.0,0.3854
362.5,0.5334
363.0,0.479
363.5,0.4412
364.0,0.5396
364.5,0.4612
365.0,0.4697
365.5,0.5896
366.0,0.6246
366.5,0.5869
367.0,0.5715
367.5,0.5931
368.0,0.5191
368.5,0.5238
369.0,0.5657
369.5,0.6029
370.0,0.6427
370.5,0.4989
371.0,0.533
371.5,0.6669
372.0,0.4427
372.5,0.5308
373.0,0.5399
373.5,0.3513
374.0,0.5105
374.5,0.4228
375.0,0.411
375.5,0.6136
376.0,0.5087
376.5,0.5272
377.0,0.5582
377.5,0.653
378.0,0.7079
378.5,0.6692
379.0,0.5523
379.5,0.5045
380.0,0.5246
380.5,0.6354
381.0,0.6367
381.5,0.5047
382.0,0.4482
382.5,0.3821
383.0,0.3538
383.5,0.3407
384.0,0.3759
384.5,0.5529
385.0,0.5483
385.5,0.5106
386.0,0.4374
386.5,0.5745
387.0,0.4774
387.5,0.5363
388.0,0.4952
388.5,0.4895
389.0,0.5284
389.5,0.64
390.0,0.6423
390.5,0.5912
391.0,0.6959
391.5,0.7098
392.0,0.5979
392.5,0.5353
393.0,0.2979
393.5,0.2165
394.0,0.4406
394.5,0.5602
395.0,0.6836
395.5,0.6945
396.0,0.6021
396.5,0.352
397.0,0.2642
397.5,0.5373
398.0,0.7525
398.5,0.7778
399.0,0.8422
399.5,0.8395
400.0,0.8718
401.0,0.8855
402.0,0.9342
403.0,0.8874
404.0,0.8738
405.0,0.8737
406.0,0.8595
407.0,0.8456
408.0,0.8787
409.0,0.9405
410.0,0.8218
411.0,0.8902
412.0,0.956
413.0,0.9324
414.0,0.9438
415.0,0.9462
416.0,0.9627
417.0,0.9391
418.0,0.9217
419.0,0.9338
420.0,0.9297
421.0,0.9726
422.0,0.9245
423.0,0.9031
424.0,0.9552
425.0,0.9534
426.0,0.9285
427.0,0.9112
428.0,0.8876
429.0,0.8406
430.0,0.7357
431.0,0.7292
432.0,0.9414
433.0,0.9466
434.0,0.879
435.0,0.918
436.0,1.034
437.0,1.02
438.0,0.9289
439.0,0.961
440.0,0.9915
441.0,1.027
442.0,1.102
443.0,1.073
444.0,1.096
445.0,1.073
446.0,1.024
447.0,1.106
448.0,1.124
449.0,1.128
450.0,1.159
451.0,1.202
452.0,1.158
453.0,1.089
454.0,1.137
455.0,1.144
456.0,1.171
457.0,1.191
458.0,1.15
459.0,1.144
460.0,1.147
461.0,1.174
462.0,1.183
463.0,1.174
464.0,1.155
465.0,1.14
466.0,1.151
467.0,1.13
468.0,1.143
469.0,1.149
470.0,1.112
471.0,1.111
472.0,1.171
473.0,1.155
474.0,1.157
475.0,1.168
476.0,1.133
477.0,1.137
478.0,1.168
479.0,1.161
480.0,1.163
481.0,1.184
482.0,1.19
483.0,1.175
484.0,1.151
485.0,1.096
486.0,0.9581
487.0,1.004
488.0,1.101
489.0,1.105
490.0,1.162
491.0,1.142
492.0,1.078
493.0,1.114
494.0,1.125
495.0,1.134
496.0,1.141
497.0,1.159
498.0,1.105
499.0,1.119
500.0,1.087
501.0,1.067
502.0,1.052
503.0,1.096
504.0,1.069
505.0,1.106
506.0,1.142
507.0,1.087
508.0,1.053
509.0,1.082
510.0,1.076
511.0,1.104
512.0,1.116
513.0,1.056
514.0,1.049
515.0,1.039
516.0,1.036
517.0,0.9205
518.0,0.9678
519.0,1.015
520.0,1.052
521.0,1.062
522.0,1.063
523.0,1.044
524.0,1.082
525.0,1.095
526.0,1.046
527.0,0.9858
528.0,1.043
529.0,1.099
530.0,1.084
531.0,1.1
532.0,1.062
533.0,1.031
534.0,1.061
535.0,1.084
536.0,1.094
537.0,1.051
538.0,1.069
539.0,1.06
540.0,1.017
541.0,1.024
542.0,1.056
543.0,1.045
544.0,1.063
545.0,1.06
546.0,1.065
547.0,1.064
548.0,1.051
549.0,1.054
550.0,1.067
551.0,1.054
552.0,1.061
553.0,1.042
554.0,1.067
555.0,1.069
556.0,1.055
557.0,1.023
558.0,1.015
559.0,0.9965
560.0,1.009
561.0,1.022
562.0,1.015
563.0,1.043
564.0,1.015
565.0,1.006
566.0,0.9918
567.0,1.011
568.0,1.002
569.0,0.9798
570.0,0.9794
571.0,0.9732
572.0,0.9974
573.0,1.008
574.0,1.005
575.0,0.9866
576.0,0.9776
577.0,0.9881
578.0,0.973
579.0,0.9763
580.0,0.994
581.0,0.9984
582.0,1.017
583.0,1.019
584.0,1.027
585.0,1.002
586.0,0.9814
587.0,1.003
588.0,0.9804
589.0,0.8717
590.0,0.9113
591.0,0.9625
592.0,0.9514
593.0,0.9641
594.0,0.958
595.0,0.9354
596.0,0.9699
597.0,0.9599
598.0,0.9568
599.0,0.9573
600.0,0.9581
601.0,0.9498
602.0,0.9432
603.0,0.9586
604.0,0.9744
605.0,0.9692
606.0,0.965
607.0,0.9743
608.0,0.9632
609.0,0.9647
610.0,0.9575
611.0,0.9624
612.0,0.9594
613.0,0.9472
614.0,0.9341
615.0,0.9542
616.0,0.9226
617.0,0.9206
618.0,0.956
619.0,0.9462
620.0,0.9522
621.0,0.9533
622.0,0.9424
623.0,0.9282
624.0,0.9121
625.0,0.91
626.0,0.9236
627.0,0.9344
628.0,0.8791
629.0,0.9145
630.0,0.8937
631.0,0.9117
632.0,0.9004
633.0,0.9269
634.0,0.9171
635.0,0.9311
636.0,0.9184
637.0,0.9331
638.0,0.9416
639.0,0.9308
640.0,0.9215
641.0,0.9207
642.0,0.9163
643.0,0.9285
644.0,0.9253
645.0,0.9269
646.0,0.9061
647.0,0.897
648.0,0.8981
649.0,0.8808
650.0,0.8828
651.0,0.9206
652.0,0.8848
653.0,0.9084
654.0,0.898
655.0,0.8658
656.0,0.7665
657.0,0.787
658.0,0.8813
659.0,0.8873
660.0,0.8909
661.0,0.8971
662.0,0.8993
663.0,0.8814
664.0,0.8912
665.0,0.8914
666.0,0.8919
667.0,0.8908
668.0,0.891
669.0,0.9046
670.0,0.9006
671.0,0.9003
672.0,0.8925
673.0,0.9058
674.0,0.9024
675.0,0.8941
676.0,0.9001
677.0,0.8911
678.0,0.8935
679.0,0.879
680.0,0.886
681.0,0.8802
682.0,0.879
683.0,0.8773
684.0,0.873
685.0,0.8803
686.0,0.8752
687.0,0.6088
688.0,0.7002
689.0,0.7023
690.0,0.7322
691.0,0.7656
692.0,0.7895
693.0,0.7835
694.0,0.7769
695.0,0.8057
696.0,0.8068
697.0,0.852
698.0,0.8388
699.0,0.8215
700.0,0.8117
701.0,0.8043
702.0,0.8088
703.0,0.8103
704.0,0.8346
705.0,0.8358
706.0,0.8344
707.0,0.8348
708.0,0.8367
709.0,0.8369
710.0,0.8373
711.0,0.8358
712.0,0.8329
713.0,0.8249
714.0,0.8279
715.0,0.8028
716.0,0.8036
717.0,0.7071
718.0,0.6511
719.0,0.5975
720.0,0.6266
721.0,0.6855
722.0,0.7774
723.0,0.7273
724.0,0.6593
725.0,0.6501
726.0,0.6798
727.0,0.6872
728.0,0.649
729.0,0.6696
730.0,0.7085
731.0,0.679
732.0,0.7225
733.0,0.7611
734.0,0.7781
735.0,0.7626
736.0,0.7615
737.0,0.7647
738.0,0.774
739.0,0.7588
740.0,0.7778
741.0,0.7696
742.0,0.7699
743.0,0.7894
744.0,0.7868
745.0,0.7868
746.0,0.7904
747.0,0.7921
748.0,0.7904
749.0,0.7813
750.0,0.7808
751.0,0.7729
752.0,0.7762
753.0,0.7801
754.0,0.7819
755.0,0.7775
756.0,0.7771
757.0,0.7782
758.0,0.7686
759.0,0.7544
760.0,0.1521
761.0,0.08532
762.0,0.4134
763.0,0.2223
764.0,0.3203
765.0,0.4135
766.0,0.4948
767.0,0.6116
768.0,0.6957
769.0,0.7081
770.0,0.7296
771.0,0.7344
772.0,0.7356
773.0,0.7406
774.0,0.737
775.0,0.7313
776.0,0.7402
777.0,0.7304
778.0,0.726
779.0,0.7266
780.0,0.7225
781.0,0.7232
782.0,0.7277
783.0,0.715
784.0,0.7184
785.0,0.7132
786.0,0.7211
787.0,0.7096
788.0,0.7013
789.0,0.7011
790.0,0.684
791.0,0.6884
792.0,0.6832
793.0,0.6723
794.0,0.6822
795.0,0.6941
796.0,0.6749
797.0,0.6758
798.0,0.6935
799.0,0.6895
800.0,0.678
801.0,0.6764
802.0,0.6744
803.0,0.6695
804.0,0.6702
805.0,0.6675
806.0,0.6852
807.0,0.6772
808.0,0.6777
809.0,0.6657
810.0,0.6608
811.0,0.6627
812.0,0.6452
813.0,0.6326
814.0,0.5614
815.0,0.5578
816.0,0.5198
817.0,0.5288
818.0,0.5101
819.0,0.566
820.0,0.5347
821.0,0.6193
822.0,0.6025
823.0,0.4189
824.0,0.587
825.0,0.6088
826.0,0.5874
827.0,0.6181
828.0,0.5292
829.0,0.5835
830.0,0.5764
831.0,0.5782
832.0,0.5614
833.0,0.5947
834.0,0.5754
835.0,0.6284
836.0,0.6038
837.0,0.63
838.0,0.6114
839.0,0.6203
840.0,0.6336
841.0,0.625
842.0,0.6257
843.0,0.6247
844.0,0.6164
845.0,0.6367
846.0,0.6338
847.0,0.6218
848.0,0.6182
849.0,0.6007
850.0,0.5754
851.0,0.6096
852.0,0.6051
853.0,0.5822
854.0,0.5029
855.0,0.5523
856.0,0.6036
857.0,0.6169
858.0,0.6124
859.0,0.6129
860.0,0.6139
861.0,0.6105
862.0,0.6201
863.0,0.6347
864.0,0.603
865.0,0.5977
866.0,0.5374
867.0,0.5608
868.0,0.6103
869.0,0.5976
870.0,0.6146
871.0,0.6063
872.0,0.6041
873.0,0.6029
874.0,0.5957
875.0,0.5836
876.0,0.5897
877.0,0.5957
878.0,0.6022
879.0,0.5929
880.0,0.5802
881.0,0.5716
882.0,0.584
883.0,0.5858
884.0,0.5831
885.0,0.5875
886.0,0.5604
887.0,0.566
888.0,0.5745
889.0,0.5807
890.0,0.5763
891.0,0.5751
892.0,0.5591
893.0,0.5423
894.0,0.5247
895.0,0.4976
896.0,0.4695
897.0,0.4057
898.0,0.4413
899.0,0.3385
900.0,0.4504
901.0,0.3548
902.0,0.4125
903.0,0.4178
904.0,0.5207
905.0,0.5036
906.0,0.4719
907.0,0.3869
908.0,0.3941
909.0,0.4252
910.0,0.379
911.0,0.4022
912.0,0.4198
913.0,0.3848
914.0,0.381
915.0,0.4128
916.0,0.3502
917.0,0.4413
918.0,0.3592
919.0,0.4485
920.0,0.4516
921.0,0.4694
922.0,0.4217
923.0,0.4533
924.0,0.4324
925.0,0.423
926.0,0.4276
927.0,0.4768
928.0,0.3553
929.0,0.3258
930.0,0.2583
931.0,0.2444
932.0,0.1782
933.0,0.146
934.0,0.08246
935.0,0.1484
936.0,0.09418
937.0,0.09564
938.0,0.117
939.0,0.2368
940.0,0.2833
941.0,0.2159
942.0,0.2487
943.0,0.1651
944.0,0.1724
945.0,0.2222
946.0,0.1151
947.0,0.2237
948.0,0.1647
949.0,0.2975
950.0,0.08577
951.0,0.2926
952.0,0.1598
953.0,0.2047
954.0,0.249
955.0,0.2068
956.0,0.1997
957.0,0.1603
958.0,0.2803
959.0,0.2248
960.0,0.2519
961.0,0.2812
962.0,0.2662
963.0,0.3055
964.0,0.2803
965.0,0.3042
966.0,0.3046
967.0,0.3034
968.0,0.402
969.0,0.4203
970.0,0.3866
971.0,0.4404
972.0,0.4217
973.0,0.3693
974.0,0.3508
975.0,0.3633
976.0,0.3461
977.0,0.3916
978.0,0.373
979.0,0.39
980.0,0.3671
981.0,0.4378
982.0,0.4194
983.0,0.4031
984.0,0.4502
985.0,0.4178
986.0,0.4576
987.0,0.4492
988.0,0.4484
989.0,0.4559
990.0,0.4457
991.0,0.4573
992.0,0.4599
993.0,0.4502
994.0,0.4597
995.0,0.459
996.0,0.4571
997.0,0.4577
998.0,0.4556
999.0,0.4539
1000.0,0.4508
1001.0,0.4563
1002.0,0.4443
1003.0,0.4483
1004.0,0.4374
1005.0,0.4212
1006.0,0.4378
1007.0,0.447
1008.0,0.4447
1009.0,0.4424
1010.0,0.4406
1011.0,0.4447
1012.0,0.441
1013.0,0.4436
1014.0,0.4405
1015.0,0.4376
1016.0,0.4357
1017.0,0.4368
1018.0,0.4351
1019.0,0.426
1020.0,0.4328
1021.0,0.4322
1022.0,0.4289
1023.0,0.4335
1024.0,0.428
1025.0,0.4331
1026.0,0.4313
1027.0,0.4303
1028.0,0.4294
1029.0,0.4243
1030.0,0.4272
1031.0,0.4255
1032.0,0.4242
1033.0,0.4179
1034.0,0.4179
1035.0,0.4192
1036.0,0.4214
1037.0,0.4145
1038.0,0.4163
1039.0,0.4161
1040.0,0.4144
1041.0,0.4161
1042.0,0.4132
1043.0,0.4119
1044.0,0.4134
1045.0,0.4078
1046.0,0.4033
1047.0,0.4069
1048.0,0.4092
1049.0,0.4077
1050.0,0.4058
1051.0,0.4053
1052.0,0.4037
1053.0,0.4005
1054.0,0.4014
1055.0,0.4016
1056.0,0.4003
1057.0,0.399
1058.0,0.3892
1059.0,0.3897
1060.0,0.3891
1061.0,0.3887
1062.0,0.3907
1063.0,0.3869
1064.0,0.3915
1065.0,0.3887
1066.0,0.381
1067.0,0.3859
1068.0,0.3776
1069.0,0.3659
1070.0,0.3783
1071.0,0.384
1072.0,0.3797
1073.0,0.3742
1074.0,0.3837
1075.0,0.365
1076.0,0.3834
1077.0,0.3769
1078.0,0.3699
1079.0,0.3772
1080.0,0.3711
1081.0,0.3594
1082.0,0.3648
1083.0,0.3658
1084.0,0.3587
1085.0,0.3719
1086.0,0.3402
1087.0,0.3505
1088.0,0.3655
1089.0,0.3548
1090.0,0.3473
1091.0,0.3644
1092.0,0.3634
1093.0,0.3097
1094.0,0.3327
1095.0,0.3224
1096.0,0.3092
1097.0,0.3549
1098.0,0.3045
1099.0,0.3174
1100.0,0.2957
1101.0,0.2992
1102.0,0.2862
1103.0,0.2838
1104.0,0.2841
1105.0,0.3103
1106.0,0.24
1107.0,0.2952
1108.0,0.2518
1109.0,0.252
1110.0,0.2928
1111.0,0.2008
1112.0,0.2499
1113.0,0.1613
1114.0,0.18
1115.0,0.1493
1116.0,0.1205
1117.0,0.04565
1118.0,0.1306
1119.0,0.06593
1120.0,0.08305
1121.0,0.1096
1122.0,0.04704
1123.0,0.07501
1124.0,0.06332
1125.0,0.08235
1126.0,0.02959
1127.0,0.09281
1128.0,0.05652
1129.0,0.05983
1130.0,0.03976
1131.0,0.1736
1132.0,0.1367
1133.0,0.08788
1134.0,0.0232
1135.0,0.008654
1136.0,0.07376
1137.0,0.171
1138.0,0.1207
1139.0,0.1775
1140.0,0.1493
1141.0,0.1147
1142.0,0.1314
1143.0,0.1856
1144.0,0.06605
1145.0,0.08472
1146.0,0.09139
1147.0,0.0331
1148.0,0.1607
1149.0,0.129
1150.0,0.07094
1151.0,0.1198
1152.0,0.1465
1153.0,0.1421
1154.0,0.08227
1155.0,0.1852
1156.0,0.1673
1157.0,0.1869
1158.0,0.1849
1159.0,0.1988
1160.0,0.1706
1161.0,0.2086
1162.0,0.2098
1163.0,0.2803
1164.0,0.2416
1165.0,0.229
1166.0,0.2266
1167.0,0.2462
1168.0,0.2492
1169.0,0.2547
1170.0,0.2759
1171.0,0.2691
1172.0,0.2734
1173.0,0.2753
1174.0,0.1993
1175.0,0.2684
1176.0,0.2937
1177.0,0.2829
1178.0,0.2146
1179.0,0.296
1180.0,0.2658
1181.0,0.2741
1182.0,0.1916
1183.0,0.2696
1184.0,0.2534
1185.0,0.2453
1186.0,0.2884
1187.0,0.2754
1188.0,0.195
1189.0,0.2568
1190.0,0.2818
1191.0,0.2689
1192.0,0.2856
1193.0,0.2741
1194.0,0.2822
1195.0,0.2679
1196.0,0.2586
1197.0,0.2819
1198.0,0.2586
1199.0,0.2221
1200.0,0.2708
1201.0,0.2619
1202.0,0.2599
1203.0,0.2578
1204.0,0.2267
1205.0,0.2653
1206.0,0.2918
1207.0,0.2595
1208.0,0.2547
1209.0,0.2598
1210.0,0.2701
1211.0,0.2581
1212.0,0.256
1213.0,0.2827
1214.0,0.2617
1215.0,0.257
1216.0,0.2818
1217.0,0.2748
1218.0,0.2795
1219.0,0.2763
1220.0,0.2798
1221.0,0.2823
1222.0,0.2752
1223.0,0.2728
1224.0,0.2715
1225.0,0.2805
1226.0,0.2821
1227.0,0.2614
1228.0,0.2833
1229.0,0.2821
1230.0,0.2775
1231.0,0.2847
1232.0,0.283
1233.0,0.2743
1234.0,0.2842
1235.0,0.2826
1236.0,0.2845
1237.0,0.2809
1238.0,0.2836
1239.0,0.2799
1240.0,0.2809
1241.0,0.2798
1242.0,0.279
1243.0,0.2768
1244.0,0.2788
1245.0,0.2799
1246.0,0.2783
1247.0,0.2773
1248.0,0.2772
1249.0,0.278
1250.0,0.2764
1251.0,0.273
1252.0,0.2728
1253.0,0.271
1254.0,0.2685
1255.0,0.2726
1256.0,0.2656
1257.0,0.2643
1258.0,0.2687
1259.0,0.2599
1260.0,0.2612
1261.0,0.2477
1262.0,0.2409
1263.0,0.2414
1264.0,0.2243
1265.0,0.2398
1266.0,0.2316
1267.0,0.2351
1268.0,0.2239
1269.0,0.1452
1270.0,0.2345
1271.0,0.2467
1272.0,0.2474
1273.0,0.2449
1274.0,0.2455
1275.0,0.2488
1276.0,0.251
1277.0,0.2524
1278.0,0.2568
1279.0,0.2545
1280.0,0.2512
1281.0,0.2395
1282.0,0.2304
1283.0,0.2482
1284.0,0.2542
1285.0,0.2559
1286.0,0.2591
1287.0,0.2555
1288.0,0.2553
1289.0,0.248
1290.0,0.253
1291.0,0.2564
1292.0,0.2423
1293.0,0.2518
1294.0,0.2501
1295.0,0.2492
1296.0,0.2388
1297.0,0.2266
1298.0,0.2425
1299.0,0.252
1300.0,0.2157
1301.0,0.2218
1302.0,0.2417
1303.0,0.2126
1304.0,0.1835
1305.0,0.2369
1306.0,0.2371
1307.0,0.1867
1308.0,0.2125
1309.0,0.2354
1310.0,0.1832
1311.0,0.2043
1312.0,0.1991
1313.0,0.1956
1314.0,0.1758
1315.0,0.1741
1316.0,0.2014
1317.0,0.191
1318.0,0.2067
1319.0,0.1641
1320.0,0.1585
1321.0,0.1837
1322.0,0.1859
1323.0,0.142
1324.0,0.161
1325.0,0.1987
1326.0,0.1718
1327.0,0.1642
1328.0,0.1422
1329.0,0.1085
1330.0,0.1404
1331.0,0.08664
1332.0,0.08882
1333.0,0.1232
1334.0,0.1034
1335.0,0.1414
1336.0,0.1128
1337.0,0.1003
1338.0,0.1085
1339.0,0.1078
1340.0,0.1043
1341.0,0.103
1342.0,0.1081
1343.0,0.07546
1344.0,0.04507
1345.0,0.06484
1346.0,0.03366
1347.0,0.03448
1348.0,0.002506
1349.0,0.008713
1350.0,0.008842
1351.0,0.002381
1352.0,0.0007182
1353.0,4.15e-05
1354.0,0.0001321
1355.0,1.374e-06
1356.0,2.047e-05
1357.0,3.108e-05
1358.0,1.611e-06
1359.0,2.457e-07
1360.0,7.89e-07
1361.0,1.324e-09
1362.0,4.331e-12
1363.0,1.128e-06
1364.0,4.738e-07
1365.0,1.894e-12
1366.0,4.689e-06
1367.0,1.863e-06
1368.0,2.266e-14
1369.0,1.792e-07
1370.0,9.578e-08
1371.0,6.02e-09
1372.0,1.026e-06
1373.0,1.819e-05
1374.0,7.748e-05
1375.0,0.0001412
1376.0,0.0001184
1377.0,5.533e-05
1378.0,0.0005201
1379.0,2.334e-05
1380.0,3.546e-05
1381.0,9.8e-07
1382.0,9.463e-07
1383.0,1.531e-08
1384.0,2.092e-07
1385.0,8.19e-07
1386.0,8.914e-07
1387.0,8.464e-05
1388.0,1.685e-06
1389.0,0.0002612
1390.0,0.000225
1391.0,0.0001531
1392.0,1.028e-05
1393.0,5.201e-05
1394.0,3.091e-05
1395.0,2.527e-07
1396.0,1.808e-09
1397.0,2.147e-05
1398.0,0.0005895
1399.0,0.0003734
1400.0,8.684e-10
1401.0,3.13e-09
1402.0,0.0009262
1403.0,0.001189
1404.0,0.000366
1405.0,1.319e-07
1406.0,0.0009871
1407.0,8.525e-05
1408.0,0.0008026
1409.0,0.0002871
1410.0,0.0002211
1411.0,0.001042
1412.0,0.001365
1413.0,0.01291
1414.0,0.0001732
1415.0,8.57e-05
1416.0,0.02032
1417.0,0.006408
1418.0,0.007333
1419.0,0.00115
1420.0,0.004496
1421.0,0.004867
1422.0,0.02646
1423.0,0.005192
1424.0,0.009671
1425.0,0.01433
1426.0,0.01603
1427.0,0.02898
1428.0,0.002374
1429.0,0.02189
1430.0,0.03677
1431.0,0.04026
1432.0,0.001875
1433.0,0.02578
1434.0,0.0132
1435.0,0.01347
1436.0,0.02557
1437.0,0.01959
1438.0,0.00839
1439.0,0.03459
1440.0,0.02592
1441.0,0.01995
1442.0,0.0221
1443.0,0.02747
1444.0,0.03793
1445.0,0.02989
1446.0,0.01351
1447.0,0.02127
1448.0,0.07066
