interpolation:linear
wavelength,value
280.0,2.824e-20
280.5,8.114e-19
281.0,4.163e-18
281.5,4.222e-19
282.0,1.751e-18
282.5,4.905e-18
283.0,1.627e-17
283.5,2.681e-17
284.0,4.249e-16
284.5,1.202e-15
285.0,1.972e-15
285.5,1.154e-14
286.0,4.845e-14
286.5,2.28e-13
287.0,6.669e-13
287.5,2.598e-12
288.0,8.089e-12
288.5,3.158e-11
289.0,1.043e-10
289.5,3.845e-10
290.0,1.238e-09
290.5,2.845e-09
291.0,6.984e-09
291.5,2.354e-08
292.0,6.496e-08
292.5,1.028e-07
293.0,2.574e-07
293.5,7.785e-07
294.0,1.435e-06
294.5,1.895e-06
295.0,3.752e-06
295.5,9.399e-06
296.0,1.812e-05
296.5,2.531e-05
297.0,3.42e-05
297.5,9.139e-05
298.0,0.0001435
298.5,0.000144
299.0,0.0003165
299.5,0.0005216
300.0,0.0005718
300.5,0.0008253
301.0,0.001485
301.5,0.002356
302.0,0.002014
302.5,0.003826
303.0,0.006624
303.5,0.008143
304.0,0.00752
304.5,0.01072
305.0,0.01526
305.5,0.0168
306.0,0.01601
306.5,0.01944
307.0,0.02728
307.5,0.03439
308.0,0.03602
308.5,0.04145
309.0,0.04011
309.5,0.04428
310.0,0.04374
310.5,0.07026
311.0,0.08696
311.5,0.08344
312.0,0.08091
312.5,0.09646
313.0,0.1035
313.5,0.1015
314.0,0.1238
314.5,0.1062
315.0,0.1388
315.5,0.1179
316.0,0.1003
316.5,0.1407
317.0,0.1748
317.5,0.1831
318.0,0.1406
318.5,0.1693
319.0,0.1978
319.5,0.1652
320.0,0.2004
320.5,0.2431
321.0,0.2105
321.5,0.2012
322.0,0.221
322.5,0.192
323.0,0.1874
323.5,0.2261
324.0,0.2631
324.5,0.2692
325.0,0.235
325.5,0.2974
326.0,0.3619
326.5,0.3586
327.0,0.3587
327.5,0.3482
328.0,0.3144
328.5,0.3248
329.0,0.3837
329.5,0.4337
330.0,0.439
330.5,0.355
331.0,0.3629
331.5,0.366
332.0,0.3909
332.5,0.3847
333.0,0.3847
333.5,0.3511
334.0,0.3601
334.5,0.4116
335.0,0.3847
335.5,0.4493
336.0,0.3109
336.5,0.365
337.0,0.3006
337.5,0.3744
338.0,0.3627
338.5,0.4185
339.0,0.4141
339.5,0.3984
340.0,0.4683
340.5,0.4217
341.0,0.4114
341.5,0.3776
342.0,0.4512
342.5,0.422
343.0,0.4642
343.5,0.4372
344.0,0.323
344.5,0.3264
345.0,0.4317
345.5,0.4406
346.0,0.3744
346.5,0.4239
347.0,0.4551
347.5,0.368
348.0,0.4194
348.5,0.4191
349.0,0.3888
349.5,0.3849
350.0,0.4761
350.5,0.5021
351.0,0.4486
351.5,0.4361
352.0,0.4683
352.5,0.3654
353.0,0.4601
353.5,0.492
354.0,0.5107
354.5,0.518
355.0,0.5162
355.5,0.4663
356.0,0.4879
356.5,0.4166
357.0,0.3442
357.5,0.4214
358.0,0.334
358.5,0.2854
359.0,0.3992
359.5,0.5088
360.0,0.5393
360.5,0.4311
361.0,0.3929
361.5,0.4524
362.0,0.3911
362.5,0.5413
363.0,0.4861
363.5,0.4477
364.0,0.5476
364.5,0.468
365.0,0.4767
365.5,0.5983
366.0,0.6338
366.5,0.5955
367.0,0.58
367.5,0.6019
368.0,0.5267
368.5,0.5315
369.0,0.5739
369.5,0.6118
370.0,0.6521
370.5,0.5061
371.0,0.5408
371.5,0.6766
372.0,0.4491
372.5,0.5385
373.0,0.5478
373.5,0.3564
374.0,0.5179
374.5,0.4289
375.0,0.4169
375.5,0.6225
376.0,0.516
376.5,0.5348
377.0,0.5662
377.5,0.6625
378.0,0.7181
378.5,0.6788
379.0,0.5602
379.5,0.5118
380.0,0.5321
380.5,0.6445
381.0,0.6459
381.5,0.512
382.0,0.4547
382.5,0.3876
383.0,0.3588
383.5,0.3456
384.0,0.3812
384.5,0.5608
385.0,0.5561
385.5,0.5179
386.0,0.4436
386.5,0.5827
387.0,0.4842
387.5,0.5439
388.0,0.5022
388.5,0.4964
389.0,0.5359
389.5,0.6491
390.0,0.6514
390.5,0.5995
391.0,0.7057
391.5,0.7198
392.0,0.6063
392.5,0.5428
393.0,0.302
393.5,0.2196
394.0,0.4468
394.5,0.5681
395.0,0.6932
395.5,0.7042
396.0,0.6106
396.5,0.3569
397.0,0.2679
397.5,0.5448
398.0,0.763
398.5,0.7886
399.0,0.8539
399.5,0.8512
400.0,0.8839
401.0,0.8979
402.0,0.9473
403.0,0.8998
404.0,0.886
405.0,0.8859
406.0,0.8715
407.0,0.8574
408.0,0.8909
409.0,0.9536
410.0,0.8332
411.0,0.9024
412.0,0.9692
413.0,0.9452
414.0,0.9568
415.0,0.9592
416.0,0.9759
417.0,0.9519
418.0,0.9343
419.0,0.9466
420.0,0.9424
421.0,0.9859
422.0,0.9371
423.0,0.9153
424.0,0.9681
425.0,0.9663
426.0,0.9411
427.0,0.9235
428.0,0.8996
429.0,0.852
430.0,0.7456
431.0,0.7391
432.0,0.9541
433.0,0.9593
434.0,0.8908
435.0,0.9304
436.0,1.048
437.0,1.034
438.0,0.9413
439.0,0.9738
440.0,1.005
441.0,1.041
442.0,1.116
443.0,1.088
444.0,1.111
445.0,1.087
446.0,1.037
447.0,1.121
448.0,1.139
449.0,1.143
450.0,1.175
451.0,1.218
452.0,1.174
453.0,1.104
454.0,1.152
455.0,1.159
456.0,1.186
457.0,1.206
458.0,1.165
459.0,1.159
460.0,1.162
461.0,1.189
462.0,1.198
463.0,1.19
464.0,1.17
465.0,1.155
466.0,1.166
467.0,1.145
468.0,1.158
469.0,1.164
470.0,1.127
471.0,1.125
472.0,1.186
473.0,1.171
474.0,1.172
475.0,1.183
476.0,1.148
477.0,1.151
478.0,1.183
479.0,1.176
480.0,1.178
481.0,1.199
482.0,1.205
483.0,1.19
484.0,1.166
485.0,1.11
486.0,0.9704
487.0,1.017
488.0,1.116
489.0,1.119
490.0,1.177
491.0,1.157
492.0,1.092
493.0,1.128
494.0,1.139
495.0,1.149
496.0,1.156
497.0,1.174
498.0,1.119
499.0,1.134
500.0,1.101
501.0,1.081
502.0,1.066
503.0,1.11
504.0,1.083
505.0,1.121
506.0,1.157
507.0,1.101
508.0,1.066
509.0,1.096
510.0,1.09
511.0,1.119
512.0,1.131
513.0,1.07
514.0,1.062
515.0,1.052
516.0,1.049
517.0,0.9324
518.0,0.9802
519.0,1.028
520.0,1.066
521.0,1.076
522.0,1.077
523.0,1.058
524.0,1.096
525.0,1.109
526.0,1.059
527.0,0.9986
528.0,1.056
529.0,1.114
530.0,1.098
531.0,1.114
532.0,1.076
533.0,1.044
534.0,1.075
535.0,1.098
536.0,1.108
537.0,1.065
538.0,1.083
539.0,1.074
540.0,1.03
541.0,1.037
542.0,1.07
543.0,1.058
544.0,1.077
545.0,1.074
546.0,1.079
547.0,1.078
548.0,1.065
549.0,1.068
550.0,1.081
551.0,1.067
552.0,1.075
553.0,1.056
554.0,1.081
555.0,1.083
556.0,1.069
557.0,1.036
558.0,1.028
559.0,1.009
560.0,1.022
561.0,1.036
562.0,1.028
563.0,1.057
564.0,1.028
565.0,1.02
566.0,1.005
567.0,1.024
568.0,1.016
569.0,0.9929
570.0,0.9924
571.0,0.9861
572.0,1.011
573.0,1.022
574.0,1.019
575.0,0.9999
576.0,0.9907
577.0,1.001
578.0,0.986
579.0,0.9892
580.0,1.007
581.0,1.012
582.0,1.03
583.0,1.032
584.0,1.041
585.0,1.015
586.0,0.9942
587.0,1.016
588.0,0.9934
589.0,0.8834
590.0,0.9236
591.0,0.9753
592.0,0.9642
593.0,0.977
594.0,0.9708
595.0,0.948
596.0,0.9827
597.0,0.9727
598.0,0.9694
599.0,0.9699
600.0,0.9706
601.0,0.9622
602.0,0.9556
603.0,0.9711
604.0,0.9871
605.0,0.9818
606.0,0.9775
607.0,0.9869
608.0,0.9757
609.0,0.9772
610.0,0.9699
611.0,0.9748
612.0,0.9718
613.0,0.9594
614.0,0.9461
615.0,0.9665
616.0,0.9345
617.0,0.9324
618.0,0.9682
619.0,0.9583
620.0,0.9644
621.0,0.9655
622.0,0.9545
623.0,0.9401
624.0,0.9238
625.0,0.9217
626.0,0.9354
627.0,0.9465
628.0,0.891
629.0,0.9265
630.0,0.9054
631.0,0.9235
632.0,0.912
633.0,0.9387
634.0,0.9288
635.0,0.9429
636.0,0.93
637.0,0.9449
638.0,0.9534
639.0,0.9425
640.0,0.933
641.0,0.9322
642.0,0.9277
643.0,0.9401
644.0,0.9368
645.0,0.9385
646.0,0.9175
647.0,0.9085
648.0,0.9095
649.0,0.892
650.0,0.8939
651.0,0.9321
652.0,0.896
653.0,0.9197
654.0,0.9092
655.0,0.8767
656.0,0.776
657.0,0.7968
658.0,0.8922
659.0,0.8983
660.0,0.9019
661.0,0.9082
662.0,0.9105
663.0,0.8923
664.0,0.9022
665.0,0.9024
666.0,0.9028
667.0,0.9017
668.0,0.9019
669.0,0.9156
670.0,0.9116
671.0,0.9112
672.0,0.9033
673.0,0.9168
674.0,0.9133
675.0,0.9049
676.0,0.911
677.0,0.9019
678.0,0.9043
679.0,0.8897
680.0,0.8967
681.0,0.8908
682.0,0.8896
683.0,0.8879
684.0,0.8835
685.0,0.8909
686.0,0.8858
687.0,0.6187
688.0,0.7104
689.0,0.7125
690.0,0.7424
691.0,0.7758
692.0,0.7997
693.0,0.7936
694.0,0.787
695.0,0.8159
696.0,0.817
697.0,0.8624
698.0,0.849
699.0,0.8318
700.0,0.8218
701.0,0.8144
702.0,0.8189
703.0,0.8204
704.0,0.8448
705.0,0.8461
706.0,0.8446
707.0,0.845
708.0,0.8469
709.0,0.847
710.0,0.8475
711.0,0.846
712.0,0.8429
713.0,0.8349
714.0,0.8379
715.0,0.8126
716.0,0.8134
717.0,0.7167
718.0,0.6601
719.0,0.6059
720.0,0.6355
721.0,0.6946
722.0,0.7871
723.0,0.7367
724.0,0.6682
725.0,0.659
726.0,0.6891
727.0,0.6963
728.0,0.6579
729.0,0.6784
730.0,0.7179
731.0,0.6881
732.0,0.7318
733.0,0.7705
734.0,0.7877
735.0,0.772
736.0,0.771
737.0,0.7741
738.0,0.7834
739.0,0.768
740.0,0.7871
741.0,0.7788
742.0,0.7791
743.0,0.7988
744.0,0.7962
745.0,0.7961
746.0,0.7997
747.0,0.8014
748.0,0.7997
749.0,0.7906
750.0,0.7901
751.0,0.7821
752.0,0.7854
753.0,0.7893
754.0,0.7911
755.0,0.7866
756.0,0.7863
757.0,0.7874
758.0,0.7777
759.0,0.7635
760.0,0.1567
761.0,0.08846
762.0,0.4211
763.0,0.2281
764.0,0.3272
765.0,0.4212
766.0,0.5028
767.0,0.6202
768.0,0.7045
769.0,0.7168
770.0,0.7384
771.0,0.7431
772.0,0.7443
773.0,0.7494
774.0,0.7457
775.0,0.7399
776.0,0.7489
777.0,0.739
778.0,0.7345
779.0,0.7352
780.0,0.731
781.0,0.7317
782.0,0.7363
783.0,0.7234
784.0,0.7269
785.0,0.7216
786.0,0.7296
787.0,0.7181
788.0,0.7097
789.0,0.7096
790.0,0.6924
791.0,0.6967
792.0,0.6914
793.0,0.6804
794.0,0.6902
795.0,0.7024
796.0,0.6831
797.0,0.684
798.0,0.7017
799.0,0.6977
800.0,0.6862
801.0,0.6845
802.0,0.6825
803.0,0.6776
804.0,0.6783
805.0,0.6755
806.0,0.6934
807.0,0.6852
808.0,0.6857
809.0,0.6737
810.0,0.6688
811.0,0.6708
812.0,0.6532
813.0,0.6406
814.0,0.569
815.0,0.5653
816.0,0.5269
817.0,0.5359
818.0,0.517
819.0,0.5733
820.0,0.5418
821.0,0.6269
822.0,0.61
823.0,0.4251
824.0,0.5945
825.0,0.6163
826.0,0.5948
827.0,0.6257
828.0,0.5362
829.0,0.5908
830.0,0.5837
831.0,0.5855
832.0,0.5686
833.0,0.602
834.0,0.5826
835.0,0.636
836.0,0.6113
837.0,0.6376
838.0,0.6189
839.0,0.6277
840.0,0.6412
841.0,0.6325
842.0,0.6332
843.0,0.6321
844.0,0.6237
845.0,0.6442
846.0,0.6412
847.0,0.6291
848.0,0.6255
849.0,0.6077
850.0,0.5822
851.0,0.6168
852.0,0.6123
853.0,0.5891
854.0,0.5088
855.0,0.5587
856.0,0.6107
857.0,0.6241
858.0,0.6196
859.0,0.62
860.0,0.621
861.0,0.6177
862.0,0.6273
863.0,0.6421
864.0,0.61
865.0,0.6047
866.0,0.5437
867.0,0.5674
868.0,0.6174
869.0,0.6046
870.0,0.6218
871.0,0.6133
872.0,0.6111
873.0,0.6099
874.0,0.6026
875.0,0.5904
876.0,0.5966
877.0,0.6026
878.0,0.6092
879.0,0.5998
880.0,0.587
881.0,0.5783
882.0,0.5909
883.0,0.5926
884.0,0.5899
885.0,0.5944
886.0,0.567
887.0,0.5726
888.0,0.5813
889.0,0.5875
890.0,0.5831
891.0,0.5818
892.0,0.5657
893.0,0.5488
894.0,0.5312
895.0,0.504
896.0,0.4756
897.0,0.4113
898.0,0.4473
899.0,0.3435
900.0,0.4563
901.0,0.36
902.0,0.418
903.0,0.4236
904.0,0.5272
905.0,0.5099
906.0,0.4779
907.0,0.3924
908.0,0.3996
909.0,0.4309
910.0,0.3845
911.0,0.4077
912.0,0.4255
913.0,0.3904
914.0,0.3864
915.0,0.4187
916.0,0.3553
917.0,0.4473
918.0,0.3644
919.0,0.4545
920.0,0.4573
921.0,0.4753
922.0,0.4273
923.0,0.459
924.0,0.4382
925.0,0.4287
926.0,0.4334
927.0,0.4829
928.0,0.3607
929.0,0.331
930.0,0.2627
931.0,0.2485
932.0,0.1816
933.0,0.149
934.0,0.08458
935.0,0.1513
936.0,0.09628
937.0,0.09781
938.0,0.1196
939.0,0.2408
940.0,0.2879
941.0,0.2197
942.0,0.2529
943.0,0.1682
944.0,0.1754
945.0,0.2261
946.0,0.1175
947.0,0.2278
948.0,0.1677
949.0,0.3025
950.0,0.08781
951.0,0.2974
952.0,0.163
953.0,0.2084
954.0,0.2532
955.0,0.2105
956.0,0.2031
957.0,0.1635
958.0,0.2846
959.0,0.2286
960.0,0.2562
961.0,0.2856
962.0,0.2704
963.0,0.3101
964.0,0.2846
965.0,0.3088
966.0,0.3092
967.0,0.3081
968.0,0.4071
969.0,0.4258
970.0,0.3918
971.0,0.4459
972.0,0.427
973.0,0.3744
974.0,0.3557
975.0,0.3682
976.0,0.351
977.0,0.3967
978.0,0.378
979.0,0.3951
980.0,0.372
981.0,0.4432
982.0,0.4247
983.0,0.4083
984.0,0.4556
985.0,0.4231
986.0,0.463
987.0,0.4547
988.0,0.4538
989.0,0.4612
990.0,0.451
991.0,0.4626
992.0,0.4653
993.0,0.4556
994.0,0.465
995.0,0.4644
996.0,0.4624
997.0,0.463
998.0,0.4609
999.0,0.4592
1000.0,0.4561
1001.0,0.4616
1002.0,0.4495
1003.0,0.4535
1004.0,0.4426
1005.0,0.4261
1006.0,0.4429
1007.0,0.4522
1008.0,0.4499
1009.0,0.4476
1010.0,0.4458
1011.0,0.4499
1012.0,0.4461
1013.0,0.4488
1014.0,0.4456
1015.0,0.4427
1016.0,0.4407
1017.0,0.4419
1018.0,0.4401
1019.0,0.431
1020.0,0.4379
1021.0,0.4372
1022.0,0.4339
1023.0,0.4385
1024.0,0.4331
1025.0,0.4381
1026.0,0.4363
1027.0,0.4353
1028.0,0.4344
1029.0,0.4293
1030.0,0.4322
1031.0,0.4305
1032.0,0.4292
1033.0,0.4227
1034.0,0.4227
1035.0,0.424
1036.0,0.4263
1037.0,0.4193
1038.0,0.4212
1039.0,0.421
1040.0,0.4193
1041.0,0.421
1042.0,0.418
1043.0,0.4167
1044.0,0.4182
1045.0,0.4125
1046.0,0.408
1047.0,0.4117
1048.0,0.414
1049.0,0.4125
1050.0,0.4106
1051.0,0.4101
1052.0,0.4084
1053.0,0.4052
1054.0,0.4061
1055.0,0.4064
1056.0,0.405
1057.0,0.4037
1058.0,0.3939
1059.0,0.3943
1060.0,0.3937
1061.0,0.3933
1062.0,0.3954
1063.0,0.3915
1064.0,0.3961
1065.0,0.3934
1066.0,0.3855
1067.0,0.3905
1068.0,0.3821
1069.0,0.3702
1070.0,0.3828
1071.0,0.3886
1072.0,0.3843
1073.0,0.3787
1074.0,0.3882
1075.0,0.3695
1076.0,0.388
1077.0,0.3814
1078.0,0.3743
1079.0,0.3816
1080.0,0.3755
1081.0,0.3638
1082.0,0.3691
1083.0,0.3701
1084.0,0.3631
1085.0,0.3763
1086.0,0.3444
1087.0,0.3548
1088.0,0.3698
1089.0,0.3591
1090.0,0.3516
1091.0,0.3688
1092.0,0.3677
1093.0,0.3137
1094.0,0.3366
1095.0,0.3265
1096.0,0.3132
1097.0,0.3591
1098.0,0.3085
1099.0,0.3215
1100.0,0.2998
1101.0,0.3033
1102.0,0.2902
1103.0,0.2877
1104.0,0.288
1105.0,0.3144
1106.0,0.2437
1107.0,0.2992
1108.0,0.2556
1109.0,0.2557
1110.0,0.2968
1111.0,0.204
1112.0,0.2535
1113.0,0.1641
1114.0,0.1831
1115.0,0.1519
1116.0,0.1229
1117.0,0.04686
1118.0,0.1331
1119.0,0.06742
1120.0,0.08494
1121.0,0.1119
1122.0,0.04826
1123.0,0.07671
1124.0,0.06476
1125.0,0.08416
1126.0,0.03046
1127.0,0.09483
1128.0,0.05799
1129.0,0.06135
1130.0,0.04087
1131.0,0.1769
1132.0,0.1393
1133.0,0.08988
1134.0,0.02391
1135.0,0.00891
1136.0,0.07554
1137.0,0.1742
1138.0,0.1231
1139.0,0.1805
1140.0,0.152
1141.0,0.1169
1142.0,0.1339
1143.0,0.1888
1144.0,0.06749
1145.0,0.08664
1146.0,0.09347
1147.0,0.03408
1148.0,0.1635
1149.0,0.1315
1150.0,0.07247
1151.0,0.1221
1152.0,0.1492
1153.0,0.1446
1154.0,0.08418
1155.0,0.1883
1156.0,0.1702
1157.0,0.19
1158.0,0.1879
1159.0,0.2018
1160.0,0.1735
1161.0,0.2117
1162.0,0.2129
1163.0,0.284
1164.0,0.2449
1165.0,0.2324
1166.0,0.2298
1167.0,0.2496
1168.0,0.2527
1169.0,0.2582
1170.0,0.2795
1171.0,0.2727
1172.0,0.2769
1173.0,0.2789
1174.0,0.2024
1175.0,0.2719
1176.0,0.2972
1177.0,0.2864
1178.0,0.2176
1179.0,0.2996
1180.0,0.2692
1181.0,0.2777
1182.0,0.1944
1183.0,0.273
1184.0,0.2568
1185.0,0.2486
1186.0,0.292
1187.0,0.279
1188.0,0.1979
1189.0,0.2601
1190.0,0.2853
1191.0,0.2724
1192.0,0.2891
1193.0,0.2776
1194.0,0.2857
1195.0,0.2714
1196.0,0.262
1197.0,0.2853
1198.0,0.2618
1199.0,0.2252
1200.0,0.2742
1201.0,0.2653
1202.0,0.2632
1203.0,0.2611
1204.0,0.2297
1205.0,0.2686
1206.0,0.2953
1207.0,0.2628
1208.0,0.2579
1209.0,0.263
1210.0,0.2734
1211.0,0.2614
1212.0,0.2594
1213.0,0.2862
1214.0,0.2651
1215.0,0.2603
1216.0,0.2852
1217.0,0.2782
1218.0,0.2829
1219.0,0.2797
1220.0,0.2831
1221.0,0.2857
1222.0,0.2786
1223.0,0.2762
1224.0,0.2749
1225.0,0.2839
1226.0,0.2855
1227.0,0.2647
1228.0,0.2866
1229.0,0.2855
1230.0,0.2809
1231.0,0.288
1232.0,0.2863
1233.0,0.2776
1234.0,0.2875
1235.0,0.2859
1236.0,0.2878
1237.0,0.2843
1238.0,0.2869
1239.0,0.2832
1240.0,0.2842
1241.0,0.2831
1242.0,0.2823
1243.0,0.28
1244.0,0.282
1245.0,0.2832
1246.0,0.2815
1247.0,0.2805
1248.0,0.2805
1249.0,0.2812
1250.0,0.2796
1251.0,0.2762
1252.0,0.276
1253.0,0.2742
1254.0,0.2717
1255.0,0.2758
1256.0,0.2688
1257.0,0.2674
1258.0,0.2719
1259.0,0.2631
1260.0,0.2643
1261.0,0.2508
1262.0,0.244
1263.0,0.2445
1264.0,0.2274
1265.0,0.2429
1266.0,0.2347
1267.0,0.2382
1268.0,0.227
1269.0,0.1479
1270.0,0.2376
1271.0,0.2498
1272.0,0.2505
1273.0,0.248
1274.0,0.2486
1275.0,0.2519
1276.0,0.2541
1277.0,0.2555
1278.0,0.2599
1279.0,0.2576
1280.0,0.2543
1281.0,0.2424
1282.0,0.2331
1283.0,0.2512
1284.0,0.2572
1285.0,0.2589
1286.0,0.2621
1287.0,0.2585
1288.0,0.2583
1289.0,0.251
1290.0,0.256
1291.0,0.2594
1292.0,0.2453
1293.0,0.2548
1294.0,0.2531
1295.0,0.2522
1296.0,0.2418
1297.0,0.2295
1298.0,0.2455
1299.0,0.2549
1300.0,0.2185
1301.0,0.2247
1302.0,0.2446
1303.0,0.2153
1304.0,0.1862
1305.0,0.2398
1306.0,0.24
1307.0,0.1893
1308.0,0.2153
1309.0,0.2384
1310.0,0.1858
1311.0,0.2069
1312.0,0.2017
1313.0,0.1982
1314.0,0.1783
1315.0,0.1766
1316.0,0.2041
1317.0,0.1936
1318.0,0.2094
1319.0,0.1666
1320.0,0.1608
1321.0,0.1863
1322.0,0.1886
1323.0,0.1442
1324.0,0.1634
1325.0,0.2013
1326.0,0.1743
1327.0,0.1666
1328.0,0.1444
1329.0,0.1103
1330.0,0.1427
1331.0,0.08836
1332.0,0.09048
1333.0,0.1254
1334.0,0.1052
1335.0,0.1437
1336.0,0.1148
1337.0,0.1021
1338.0,0.1104
1339.0,0.1097
1340.0,0.1061
1341.0,0.1049
1342.0,0.1101
1343.0,0.0772
1344.0,0.0461
1345.0,0.06629
1346.0,0.03465
1347.0,0.03552
1348.0,0.002625
1349.0,0.009084
1350.0,0.009186
1351.0,0.00251
1352.0,0.000769
1353.0,4.524e-05
1354.0,0.0001424
1355.0,1.536e-06
1356.0,2.235e-05
1357.0,3.392e-05
1358.0,1.798e-06
1359.0,2.815e-07
1360.0,8.886e-07
1361.0,1.579e-09
1362.0,5.297e-12
1363.0,1.279e-06
1364.0,5.386e-07
1365.0,2.388e-12
1366.0,5.278e-06
1367.0,2.091e-06
1368.0,3.032e-14
1369.0,2.041e-07
1370.0,1.103e-07
1371.0,7.033e-09
1372.0,1.151e-06
1373.0,2.004e-05
1374.0,8.428e-05
1375.0,0.0001535
1376.0,0.0001275
1377.0,5.979e-05
1378.0,0.0005584
1379.0,2.524e-05
1380.0,3.862e-05
1381.0,1.076e-06
1382.0,1.065e-06
1383.0,1.743e-08
1384.0,2.393e-07
1385.0,9.107e-07
1386.0,1.011e-06
1387.0,9.267e-05
1388.0,1.849e-06
1389.0,0.0002822
1390.0,0.0002431
1391.0,0.0001659
1392.0,1.12e-05
1393.0,5.627e-05
1394.0,3.409e-05
1395.0,2.832e-07
1396.0,2.14e-09
1397.0,2.334e-05
1398.0,0.0006335
1399.0,0.0004013
1400.0,1.043e-09
1401.0,3.684e-09
1402.0,0.0009793
1403.0,0.001261
1404.0,0.0003886
1405.0,1.492e-07
1406.0,0.001053
1407.0,9.075e-05
1408.0,0.0008558
1409.0,0.000309
1410.0,0.0002368
1411.0,0.001104
1412.0,0.00144
1413.0,0.01342
1414.0,0.0001853
1415.0,9.209e-05
1416.0,0.02097
1417.0,0.006674
1418.0,0.007643
1419.0,0.001201
1420.0,0.004689
1421.0,0.005078
1422.0,0.02729
1423.0,0.005372
1424.0,0.009991
1425.0,0.01482
1426.0,0.01653
1427.0,0.02974
1428.0,0.002491
1429.0,0.02253
1430.0,0.03769
1431.0,0.04123
1432.0,0.001969
1433.0,0.02645
1434.0,0.01357
1435.0,0.01395
1436.0,0.02633
1437.0,0.02017
1438.0,0.008681
1439.0,0.03555
1440.0,0.02664
1441.0,0.02058
1442.0,0.02279
1443.0,0.02821
1444.0,0.03889
1445.0,0.03075
1446.0,0.01393
1447.0,0.02192
1448.0,0.07212
1449.0,0.0629
