interpolation:linear
wavelength,value
280.0,2.605e-22
280.5,8.576e-21
281.0,4.5990000000000005e-20
281.5,3.976e-19
282.0,6.489e-19
282.5,1.61e-18
283.0,5.093e-18
283.5,8.294e-18
284.0,1.367e-16
284.5,3.99e-16
285.0,6.552e-16
285.5,3.274e-15
286.0,1.321e-14
286.5,5.953e-14
287.0,1.709e-13
287.5,6.596e-13
288.0,2.295e-12
288.5,6.894e-12
289.0,1.828e-11
289.5,5.506e-11
290.0,1.526e-10
290.5,3.109e-10
291.0,6.672e-10
291.5,1.915e-09
292.0,3.853e-09
292.5,5.416e-09
293.0,1.164e-08
293.5,2.841e-08
294.0,4.45e-08
294.5,6.099e-08
295.0,1.035e-07
295.5,1.732e-07
296.0,3.368e-07
296.5,4.754e-07
297.0,6.484e-07
297.5,1.765e-06
298.0,2.821e-06
298.5,2.872e-06
299.0,6.413e-06
299.5,1.093e-05
300.0,1.221e-05
300.5,1.8e-05
301.0,3.358e-05
301.5,5.51e-05
302.0,4.784e-05
302.5,9.648e-05
303.0,0.0001815
303.5,0.000237
304.0,0.0002309
304.5,0.0003798
305.0,0.0006629
305.5,0.0008316
306.0,0.0008342
306.5,0.001103
307.0,0.001873
307.5,0.002845
308.0,0.003071
308.5,0.003879
309.0,0.003922
309.5,0.004984
310.0,0.005253
310.5,0.008713
311.0,0.01137
311.5,0.01116
312.0,0.01214
312.5,0.0156
313.0,0.01742
313.5,0.01647
314.0,0.02199
314.5,0.02127
315.0,0.02838
315.5,0.02277
316.0,0.02133
316.5,0.03253
317.0,0.04034
317.5,0.04127
318.0,0.03355
318.5,0.04504
319.0,0.05559
319.5,0.04255
320.0,0.05093
320.5,0.06901
321.0,0.06599
321.5,0.06373
322.0,0.06294
322.5,0.05498
323.0,0.05755
323.5,0.07414
324.0,0.08725
324.5,0.08681
325.0,0.07309
325.5,0.09786
326.0,0.1212
326.5,0.1246
327.0,0.123
327.5,0.1174
328.0,0.101
328.5,0.1107
329.0,0.1371
329.5,0.1572
330.0,0.1574
330.5,0.1228
331.0,0.124
331.5,0.1286
332.0,0.1428
332.5,0.1431
333.0,0.1417
333.5,0.1257
334.0,0.1284
334.5,0.1517
335.0,0.1445
335.5,0.1694
336.0,0.1173
336.5,0.136
337.0,0.1106
337.5,0.1371
338.0,0.1365
338.5,0.1584
339.0,0.1571
339.5,0.1511
340.0,0.1768
340.5,0.1597
341.0,0.1564
341.5,0.1439
342.0,0.1722
342.5,0.1613
343.0,0.1772
343.5,0.1668
344.0,0.1229
344.5,0.1245
345.0,0.1652
345.5,0.169
346.0,0.1438
346.5,0.163
347.0,0.1749
347.5,0.1414
348.0,0.1615
348.5,0.1617
349.0,0.1502
349.5,0.1488
350.0,0.1841
350.5,0.1943
351.0,0.1736
351.5,0.1685
352.0,0.1813
352.5,0.1417
353.0,0.1787
353.5,0.1913
354.0,0.1987
354.5,0.2016
355.0,0.201
355.5,0.1818
356.0,0.1903
356.5,0.1626
357.0,0.1344
357.5,0.1646
358.0,0.1305
358.5,0.1116
359.0,0.1562
359.5,0.199
360.0,0.2111
360.5,0.1688
361.0,0.1541
361.5,0.1776
362.0,0.1538
362.5,0.2131
363.0,0.1916
363.5,0.1767
364.0,0.2162
364.5,0.1849
365.0,0.1885
365.5,0.2367
366.0,0.251
366.5,0.2361
367.0,0.2301
367.5,0.2389
368.0,0.2092
368.5,0.2113
369.0,0.2284
369.5,0.2436
370.0,0.2599
370.5,0.2019
371.0,0.2159
371.5,0.2702
372.0,0.1794
372.5,0.2153
373.0,0.2192
373.5,0.1427
374.0,0.2076
374.5,0.172
375.0,0.1673
375.5,0.25
376.0,0.2073
376.5,0.215
377.0,0.2278
377.5,0.2667
378.0,0.2892
378.5,0.2735
379.0,0.2258
379.5,0.2063
380.0,0.2146
380.5,0.2602
381.0,0.261
381.5,0.2071
382.0,0.1841
382.5,0.1571
383.0,0.1456
383.5,0.1404
384.0,0.1549
384.5,0.2281
385.0,0.2264
385.5,0.211
386.0,0.1808
386.5,0.2378
387.0,0.1977
387.5,0.2222
388.0,0.2053
388.5,0.2031
389.0,0.2194
389.5,0.2659
390.0,0.2671
390.5,0.2459
391.0,0.2897
391.5,0.2957
392.0,0.2492
392.5,0.2233
393.0,0.1244
393.5,0.09047
394.0,0.1842
394.5,0.2344
395.0,0.2862
395.5,0.2909
396.0,0.2523
396.5,0.1477
397.0,0.1109
397.5,0.2257
398.0,0.3162
398.5,0.327
399.0,0.3545
399.5,0.3536
400.0,0.3672
401.0,0.3704
402.0,0.3914
403.0,0.3724
404.0,0.3671
405.0,0.3675
406.0,0.3621
407.0,0.3568
408.0,0.371
409.0,0.3975
410.0,0.3478
411.0,0.3773
412.0,0.4059
413.0,0.3961
414.0,0.4016
415.0,0.4032
416.0,0.4109
417.0,0.4012
418.0,0.3942
419.0,0.3999
420.0,0.3985
421.0,0.4174
422.0,0.3971
423.0,0.3883
424.0,0.4109
425.0,0.4107
426.0,0.4008
427.0,0.3937
428.0,0.3838
429.0,0.3642
430.0,0.3191
431.0,0.3163
432.0,0.409
433.0,0.4117
434.0,0.3825
435.0,0.3997
436.0,0.4511
437.0,0.4457
438.0,0.4063
439.0,0.4199
440.0,0.4337
441.0,0.45
442.0,0.483
443.0,0.4703
444.0,0.4812
445.0,0.4709
446.0,0.4502
447.0,0.4876
448.0,0.4949
449.0,0.4978
450.0,0.5123
451.0,0.5316
452.0,0.5126
453.0,0.4826
454.0,0.5045
455.0,0.5077
456.0,0.5202
457.0,0.529
458.0,0.5106
459.0,0.5083
460.0,0.5095
461.0,0.5215
462.0,0.5261
463.0,0.5226
464.0,0.5149
465.0,0.5093
466.0,0.5149
467.0,0.5053
468.0,0.5114
469.0,0.5141
470.0,0.4977
471.0,0.4973
472.0,0.5241
473.0,0.5173
474.0,0.5176
475.0,0.5214
476.0,0.5051
477.0,0.5059
478.0,0.5202
479.0,0.5176
480.0,0.519
481.0,0.5294
482.0,0.533
483.0,0.5275
484.0,0.5172
485.0,0.4934
486.0,0.4319
487.0,0.4532
488.0,0.4972
489.0,0.4986
490.0,0.525
491.0,0.5163
492.0,0.4877
493.0,0.5038
494.0,0.509
495.0,0.5134
496.0,0.5166
497.0,0.5246
498.0,0.5
499.0,0.506
500.0,0.4909
501.0,0.4813
502.0,0.4735
503.0,0.4917
504.0,0.4762
505.0,0.4957
506.0,0.5117
507.0,0.4871
508.0,0.4729
509.0,0.4869
510.0,0.485
511.0,0.4986
512.0,0.5044
513.0,0.4775
514.0,0.4745
515.0,0.4698
516.0,0.4686
517.0,0.4165
518.0,0.4378
519.0,0.4592
520.0,0.4758
521.0,0.4802
522.0,0.4803
523.0,0.4715
524.0,0.4878
525.0,0.4928
526.0,0.4704
527.0,0.4427
528.0,0.4677
529.0,0.4925
530.0,0.4851
531.0,0.492
532.0,0.475
533.0,0.4611
534.0,0.475
535.0,0.4857
536.0,0.4905
537.0,0.4715
538.0,0.4801
539.0,0.476
540.0,0.4562
541.0,0.4583
542.0,0.4722
543.0,0.4679
544.0,0.4753
545.0,0.4739
546.0,0.4753
547.0,0.4757
548.0,0.4704
549.0,0.4721
550.0,0.4777
551.0,0.472
552.0,0.4753
553.0,0.4667
554.0,0.4778
555.0,0.4785
556.0,0.4722
557.0,0.4572
558.0,0.4533
559.0,0.4443
560.0,0.4495
561.0,0.4549
562.0,0.451
563.0,0.4626
564.0,0.4495
565.0,0.4451
566.0,0.4382
567.0,0.4458
568.0,0.4402
569.0,0.4267
570.0,0.427
571.0,0.4252
572.0,0.4334
573.0,0.4376
574.0,0.4358
575.0,0.4269
576.0,0.4231
577.0,0.428
578.0,0.4225
579.0,0.4256
580.0,0.4359
581.0,0.4399
582.0,0.4497
583.0,0.4521
584.0,0.4568
585.0,0.4462
586.0,0.4371
587.0,0.4457
588.0,0.431
589.0,0.3745
590.0,0.3922
591.0,0.4195
592.0,0.4116
593.0,0.4211
594.0,0.4168
595.0,0.4037
596.0,0.4257
597.0,0.4195
598.0,0.4203
599.0,0.4215
600.0,0.4236
601.0,0.4214
602.0,0.4187
603.0,0.4262
604.0,0.4336
605.0,0.4317
606.0,0.4306
607.0,0.4356
608.0,0.4315
609.0,0.4328
610.0,0.4304
611.0,0.4331
612.0,0.4322
613.0,0.4271
614.0,0.4219
615.0,0.4316
616.0,0.4179
617.0,0.4174
618.0,0.4338
619.0,0.4296
620.0,0.4323
621.0,0.4323
622.0,0.4267
623.0,0.4198
624.0,0.4131
625.0,0.4121
626.0,0.4181
627.0,0.4213
628.0,0.3763
629.0,0.4053
630.0,0.3954
631.0,0.4102
632.0,0.4064
633.0,0.4212
634.0,0.419
635.0,0.4266
636.0,0.422
637.0,0.4298
638.0,0.4353
639.0,0.4311
640.0,0.4278
641.0,0.4282
642.0,0.427
643.0,0.4328
644.0,0.4321
645.0,0.4324
646.0,0.4203
647.0,0.4105
648.0,0.411
649.0,0.4024
650.0,0.4106
651.0,0.4295
652.0,0.4054
653.0,0.4241
654.0,0.4199
655.0,0.4011
656.0,0.3577
657.0,0.3677
658.0,0.4141
659.0,0.4179
660.0,0.4201
661.0,0.4232
662.0,0.423
663.0,0.415
664.0,0.4217
665.0,0.4234
666.0,0.4243
667.0,0.4246
668.0,0.4255
669.0,0.4325
670.0,0.4309
671.0,0.4312
672.0,0.4277
673.0,0.4345
674.0,0.4332
675.0,0.4295
676.0,0.4327
677.0,0.4287
678.0,0.4302
679.0,0.4235
680.0,0.427
681.0,0.4243
682.0,0.4238
683.0,0.423
684.0,0.4209
685.0,0.4248
686.0,0.422
687.0,0.2095
688.0,0.2759
689.0,0.278
690.0,0.3027
691.0,0.3319
692.0,0.3551
693.0,0.3515
694.0,0.3501
695.0,0.3737
696.0,0.3748
697.0,0.4082
698.0,0.4017
699.0,0.3848
700.0,0.3798
701.0,0.3731
702.0,0.3786
703.0,0.3799
704.0,0.3965
705.0,0.397
706.0,0.3983
707.0,0.3993
708.0,0.4
709.0,0.4035
710.0,0.4019
711.0,0.4024
712.0,0.4027
713.0,0.3972
714.0,0.3992
715.0,0.3836
716.0,0.3831
717.0,0.3062
718.0,0.279
719.0,0.2535
720.0,0.2629
721.0,0.305
722.0,0.365
723.0,0.3318
724.0,0.2892
725.0,0.2814
726.0,0.2954
727.0,0.3062
728.0,0.2795
729.0,0.299
730.0,0.3144
731.0,0.2991
732.0,0.3296
733.0,0.3576
734.0,0.369
735.0,0.3598
736.0,0.359
737.0,0.3605
738.0,0.3731
739.0,0.3658
740.0,0.3775
741.0,0.3749
742.0,0.3766
743.0,0.3866
744.0,0.3863
745.0,0.3871
746.0,0.3888
747.0,0.3899
748.0,0.3891
749.0,0.3848
750.0,0.3846
751.0,0.3808
752.0,0.3825
753.0,0.3845
754.0,0.3854
755.0,0.3832
756.0,0.3831
757.0,0.3836
758.0,0.3787
759.0,0.3665
760.0,0.01782
761.0,0.006305
762.0,0.118
763.0,0.036
764.0,0.07184
765.0,0.1178
766.0,0.1723
767.0,0.2509
768.0,0.3202
769.0,0.3343
770.0,0.3542
771.0,0.3609
772.0,0.3629
773.0,0.3658
774.0,0.3643
775.0,0.3617
776.0,0.3662
777.0,0.3614
778.0,0.3592
779.0,0.3595
780.0,0.3576
781.0,0.358
782.0,0.3603
783.0,0.3541
784.0,0.356
785.0,0.353
786.0,0.3566
787.0,0.347
788.0,0.3411
789.0,0.3408
790.0,0.3271
791.0,0.3346
792.0,0.3328
793.0,0.3269
794.0,0.3372
795.0,0.3416
796.0,0.3247
797.0,0.3245
798.0,0.3405
799.0,0.3371
800.0,0.3297
801.0,0.3271
802.0,0.3261
803.0,0.3228
804.0,0.324
805.0,0.3249
806.0,0.3373
807.0,0.3325
808.0,0.3331
809.0,0.3243
810.0,0.3201
811.0,0.3172
812.0,0.3036
813.0,0.2955
814.0,0.2479
815.0,0.2472
816.0,0.2285
817.0,0.2335
818.0,0.222
819.0,0.2584
820.0,0.2398
821.0,0.2957
822.0,0.2848
823.0,0.1708
824.0,0.2705
825.0,0.2906
826.0,0.2745
827.0,0.2948
828.0,0.2352
829.0,0.2739
830.0,0.2691
831.0,0.2701
832.0,0.2592
833.0,0.2825
834.0,0.268
835.0,0.3052
836.0,0.2848
837.0,0.3063
838.0,0.293
839.0,0.3022
840.0,0.3098
841.0,0.3038
842.0,0.307
843.0,0.3094
844.0,0.3037
845.0,0.3158
846.0,0.3149
847.0,0.3098
848.0,0.3067
849.0,0.298
850.0,0.2856
851.0,0.3012
852.0,0.2997
853.0,0.2894
854.0,0.2491
855.0,0.2748
856.0,0.2998
857.0,0.3073
858.0,0.3046
859.0,0.3055
860.0,0.3063
861.0,0.3046
862.0,0.3095
863.0,0.3168
864.0,0.3011
865.0,0.2985
866.0,0.2685
867.0,0.2802
868.0,0.3049
869.0,0.2987
870.0,0.3072
871.0,0.303
872.0,0.302
873.0,0.3014
874.0,0.2979
875.0,0.2918
876.0,0.2947
877.0,0.2978
878.0,0.3008
879.0,0.2963
880.0,0.2899
881.0,0.285
882.0,0.2909
883.0,0.2924
884.0,0.2909
885.0,0.293
886.0,0.2772
887.0,0.2818
888.0,0.285
889.0,0.29
890.0,0.2854
891.0,0.286
892.0,0.2749
893.0,0.2636
894.0,0.2483
895.0,0.2272
896.0,0.2121
897.0,0.1738
898.0,0.1937
899.0,0.1381
900.0,0.2038
901.0,0.1446
902.0,0.1822
903.0,0.1795
904.0,0.2462
905.0,0.2352
906.0,0.2177
907.0,0.1632
908.0,0.1692
909.0,0.1885
910.0,0.1565
911.0,0.1745
912.0,0.1831
913.0,0.1583
914.0,0.1591
915.0,0.1715
916.0,0.1438
917.0,0.1925
918.0,0.1466
919.0,0.1996
920.0,0.2093
921.0,0.2172
922.0,0.1866
923.0,0.2107
924.0,0.1892
925.0,0.1856
926.0,0.1863
927.0,0.216
928.0,0.1372
929.0,0.1198
930.0,0.0856
931.0,0.08124
932.0,0.05028
933.0,0.03748
934.0,0.01409
935.0,0.04098
936.0,0.02114
937.0,0.02125
938.0,0.02767
939.0,0.07849
940.0,0.1008
941.0,0.06815
942.0,0.08293
943.0,0.04867
944.0,0.05723
945.0,0.07201
946.0,0.02902
947.0,0.07021
948.0,0.05085
949.0,0.1018
950.0,0.01818
951.0,0.1013
952.0,0.04486
953.0,0.06424
954.0,0.08606
955.0,0.06577
956.0,0.07135
957.0,0.04443
958.0,0.1093
959.0,0.07744
960.0,0.08682
961.0,0.1049
962.0,0.0989
963.0,0.1206
964.0,0.1086
965.0,0.12
966.0,0.1192
967.0,0.1177
968.0,0.1844
969.0,0.1886
970.0,0.1708
971.0,0.2074
972.0,0.1957
973.0,0.1585
974.0,0.1495
975.0,0.1591
976.0,0.1443
977.0,0.1782
978.0,0.1635
979.0,0.1745
980.0,0.1624
981.0,0.2065
982.0,0.193
983.0,0.1829
984.0,0.2183
985.0,0.192
986.0,0.2257
987.0,0.2173
988.0,0.2172
989.0,0.2273
990.0,0.2157
991.0,0.2275
992.0,0.2293
993.0,0.2202
994.0,0.2296
995.0,0.2299
996.0,0.2283
997.0,0.2289
998.0,0.2276
999.0,0.227
1000.0,0.2244
1001.0,0.2283
1002.0,0.218
1003.0,0.224
1004.0,0.2175
1005.0,0.2109
1006.0,0.2185
1007.0,0.2235
1008.0,0.2216
1009.0,0.2196
1010.0,0.2183
1011.0,0.2224
1012.0,0.2198
1013.0,0.2221
1014.0,0.2206
1015.0,0.219
1016.0,0.2179
1017.0,0.2183
1018.0,0.218
1019.0,0.2118
1020.0,0.2166
1021.0,0.2166
1022.0,0.2143
1023.0,0.2165
1024.0,0.2122
1025.0,0.2169
1026.0,0.2156
1027.0,0.2152
1028.0,0.2146
1029.0,0.2119
1030.0,0.2139
1031.0,0.2128
1032.0,0.2124
1033.0,0.2091
1034.0,0.2092
1035.0,0.2099
1036.0,0.2108
1037.0,0.2074
1038.0,0.2083
1039.0,0.208
1040.0,0.2072
1041.0,0.2079
1042.0,0.2064
1043.0,0.2057
1044.0,0.2063
1045.0,0.2034
1046.0,0.201
1047.0,0.2027
1048.0,0.2037
1049.0,0.2029
1050.0,0.2018
1051.0,0.2014
1052.0,0.2004
1053.0,0.1986
1054.0,0.1988
1055.0,0.1987
1056.0,0.1977
1057.0,0.1969
1058.0,0.1918
1059.0,0.1918
1060.0,0.1914
1061.0,0.191
1062.0,0.1918
1063.0,0.1897
1064.0,0.192
1065.0,0.19
1066.0,0.1867
1067.0,0.189
1068.0,0.1844
1069.0,0.1791
1070.0,0.1848
1071.0,0.189
1072.0,0.1858
1073.0,0.1833
1074.0,0.1896
1075.0,0.1762
1076.0,0.1892
1077.0,0.1837
1078.0,0.1792
1079.0,0.1869
1080.0,0.1809
1081.0,0.1731
1082.0,0.1793
1083.0,0.1807
1084.0,0.1719
1085.0,0.1816
1086.0,0.1606
1087.0,0.1692
1088.0,0.1799
1089.0,0.1705
1090.0,0.1649
1091.0,0.1783
1092.0,0.1786
1093.0,0.1415
1094.0,0.1621
1095.0,0.1479
1096.0,0.139
1097.0,0.1745
1098.0,0.1353
1099.0,0.1426
1100.0,0.1289
1101.0,0.1318
1102.0,0.1232
1103.0,0.1201
1104.0,0.1205
1105.0,0.1385
1106.0,0.09083
1107.0,0.1287
1108.0,0.1002
1109.0,0.1018
1110.0,0.1257
1111.0,0.07343
1112.0,0.1016
1113.0,0.05354
1114.0,0.06029
1115.0,0.04912
1116.0,0.03359
1117.0,0.007749
1118.0,0.03784
1119.0,0.01442
1120.0,0.01752
1121.0,0.02542
1122.0,0.007499
1123.0,0.016
1124.0,0.01344
1125.0,0.01862
1126.0,0.003606
1127.0,0.0213
1128.0,0.009297
1129.0,0.01017
1130.0,0.006109
1131.0,0.05061
1132.0,0.03761
1133.0,0.01845
1134.0,0.002707
1135.0,0.001148
1136.0,0.01368
1137.0,0.04755
1138.0,0.03247
1139.0,0.06107
1140.0,0.04611
1141.0,0.03102
1142.0,0.03789
1143.0,0.05946
1144.0,0.01544
1145.0,0.01776
1146.0,0.0191
1147.0,0.003962
1148.0,0.05065
1149.0,0.03698
1150.0,0.01776
1151.0,0.03222
1152.0,0.0438
1153.0,0.04608
1154.0,0.01757
1155.0,0.06354
1156.0,0.05456
1157.0,0.0668
1158.0,0.06585
1159.0,0.07381
1160.0,0.06085
1161.0,0.08241
1162.0,0.08201
1163.0,0.1248
1164.0,0.1021
1165.0,0.09128
1166.0,0.09484
1167.0,0.1057
1168.0,0.1057
1169.0,0.1096
1170.0,0.1235
1171.0,0.1203
1172.0,0.1254
1173.0,0.1233
1174.0,0.07832
1175.0,0.1231
1176.0,0.1414
1177.0,0.1316
1178.0,0.09136
1179.0,0.1426
1180.0,0.1208
1181.0,0.1249
1182.0,0.07768
1183.0,0.1243
1184.0,0.1135
1185.0,0.1069
1186.0,0.1357
1187.0,0.1263
1188.0,0.07741
1189.0,0.1173
1190.0,0.1333
1191.0,0.1207
1192.0,0.1357
1193.0,0.1281
1194.0,0.1333
1195.0,0.1221
1196.0,0.1155
1197.0,0.135
1198.0,0.1217
1199.0,0.09551
1200.0,0.1263
1201.0,0.1189
1202.0,0.1207
1203.0,0.1182
1204.0,0.1
1205.0,0.1257
1206.0,0.1428
1207.0,0.1192
1208.0,0.1198
1209.0,0.1227
1210.0,0.1297
1211.0,0.1207
1212.0,0.1147
1213.0,0.1359
1214.0,0.1191
1215.0,0.1164
1216.0,0.136
1217.0,0.1309
1218.0,0.1347
1219.0,0.1321
1220.0,0.135
1221.0,0.1373
1222.0,0.1331
1223.0,0.1312
1224.0,0.1287
1225.0,0.1362
1226.0,0.1383
1227.0,0.1233
1228.0,0.14
1229.0,0.1383
1230.0,0.1352
1231.0,0.1419
1232.0,0.1409
1233.0,0.1323
1234.0,0.1425
1235.0,0.1411
1236.0,0.1426
1237.0,0.1391
1238.0,0.1421
1239.0,0.1402
1240.0,0.141
1241.0,0.1393
1242.0,0.1399
1243.0,0.1388
1244.0,0.1395
1245.0,0.1403
1246.0,0.1395
1247.0,0.1387
1248.0,0.1381
1249.0,0.139
1250.0,0.1378
1251.0,0.1355
1252.0,0.1362
1253.0,0.1338
1254.0,0.1314
1255.0,0.1357
1256.0,0.1294
1257.0,0.1282
1258.0,0.1326
1259.0,0.1239
1260.0,0.1251
1261.0,0.1133
1262.0,0.1075
1263.0,0.1076
1264.0,0.094
1265.0,0.107
1266.0,0.09978
1267.0,0.1038
1268.0,0.0949
1269.0,0.0402
1270.0,0.1025
1271.0,0.1136
1272.0,0.1144
1273.0,0.1127
1274.0,0.1138
1275.0,0.1163
1276.0,0.1183
1277.0,0.1203
1278.0,0.1245
1279.0,0.1232
1280.0,0.1219
1281.0,0.1171
1282.0,0.1143
1283.0,0.1229
1284.0,0.1255
1285.0,0.1266
1286.0,0.1291
1287.0,0.1256
1288.0,0.1261
1289.0,0.1191
1290.0,0.1251
1291.0,0.1274
1292.0,0.1144
1293.0,0.1237
1294.0,0.1226
1295.0,0.1202
1296.0,0.1116
1297.0,0.1033
1298.0,0.1162
1299.0,0.1243
1300.0,0.09713
1301.0,0.1015
1302.0,0.1159
1303.0,0.09664
1304.0,0.07524
1305.0,0.1132
1306.0,0.1124
1307.0,0.07952
1308.0,0.09807
1309.0,0.1102
1310.0,0.07734
1311.0,0.0923
1312.0,0.08883
1313.0,0.08532
1314.0,0.07376
1315.0,0.07123
1316.0,0.08944
1317.0,0.08368
1318.0,0.09408
1319.0,0.065
1320.0,0.06462
1321.0,0.07831
1322.0,0.07746
1323.0,0.05154
1324.0,0.06411
1325.0,0.0872
1326.0,0.07062
1327.0,0.06613
1328.0,0.05464
1329.0,0.03534
1330.0,0.04904
1331.0,0.02378
1332.0,0.02617
1333.0,0.0375
1334.0,0.0357
1335.0,0.05074
1336.0,0.03667
1337.0,0.03157
1338.0,0.03375
1339.0,0.03438
1340.0,0.03519
1341.0,0.03019
1342.0,0.03227
1343.0,0.01572
1344.0,0.01001
1345.0,0.01397
1346.0,0.004213
1347.0,0.003857
1348.0,9.111e-05
1349.0,0.0004109
1350.0,0.0004995
1351.0,4.791e-05
1352.0,4.019e-06
1353.0,1.086e-07
1354.0,6.333e-07
1355.0,1.686e-09
1356.0,5.249e-08
1357.0,7.91e-08
1358.0,2.024e-09
1359.0,2.094e-10
1360.0,8.241e-10
1361.0,8.22e-13
1362.0,2.245e-15
1363.0,1.027e-09
1364.0,4.307e-10
1365.0,7.834e-16
1366.0,4.577e-09
1367.0,2.015e-09
1368.0,6.049e-18
1369.0,1.589e-10
1370.0,7.565e-11
1371.0,4.232e-12
1372.0,1.11e-09
1373.0,2.99e-08
1374.0,2.101e-07
1375.0,3.237e-07
1376.0,5.899e-07
1377.0,2.433e-07
1378.0,2.525e-06
1379.0,1.065e-07
1380.0,9.634e-08
1381.0,2.187e-09
1382.0,9.416e-10
1383.0,1.354e-11
1384.0,1.691e-10
1385.0,1.101e-09
1386.0,7.81e-10
1387.0,1.428e-07
1388.0,3.75e-09
1389.0,9.102e-07
1390.0,7.133e-07
1391.0,4.68e-07
1392.0,3.045e-08
1393.0,2.104e-07
1394.0,4.43e-08
1395.0,2.787e-10
1396.0,1.072e-12
1397.0,6.703e-08
1398.0,2.469e-06
1399.0,1.675e-06
1400.0,4.571e-13
1401.0,1.907e-12
1402.0,1.671e-05
1403.0,1.566e-05
1404.0,4.076e-06
1405.0,1.18e-10
1406.0,6.688e-06
1407.0,1.137e-06
1408.0,6.021e-06
1409.0,1.106e-06
1410.0,1.639e-06
1411.0,1.468e-05
1412.0,2.788e-05
1413.0,0.0006309
1414.0,1.446e-06
1415.0,5.357e-07
1416.0,0.002088
1417.0,0.0003817
1418.0,0.0003166
1419.0,4.378e-05
1420.0,0.0001901
1421.0,0.0002622
1422.0,0.002722
1423.0,0.0004823
1424.0,0.00104
1425.0,0.001268
1426.0,0.001944
1427.0,0.004537
1428.0,7.515e-05
1429.0,0.002742
