interpolation:linear
wavelength,value
280.0,8.414e-21
280.5,2.545e-19
281.0,1.327e-18
281.5,4.836e-19
282.0,1.477e-18
282.5,3.89e-18
283.0,1.251e-17
283.5,2.043e-17
284.0,3.235e-16
284.5,9.22e-16
285.0,1.827e-15
285.5,9.578e-15
286.0,3.898e-14
286.5,1.754e-13
287.0,5.002e-13
287.5,1.9e-12
288.0,4.99e-12
288.5,1.776e-11
289.0,5.341e-11
289.5,1.782e-10
290.0,5.288e-10
290.5,1.133e-09
291.0,2.566e-09
291.5,8.024e-09
292.0,1.95e-08
292.5,3.067e-08
293.0,7.634e-08
293.5,2.296e-07
294.0,4.204e-07
294.5,5.584e-07
295.0,1.108e-06
295.5,3.03e-06
296.0,6.014e-06
296.5,8.663e-06
297.0,1.202e-05
297.5,3.349e-05
298.0,5.458e-05
298.5,5.641e-05
299.0,0.0001278
299.5,0.0002225
300.0,0.0002519
300.5,0.0003765
301.0,0.0007199
301.5,0.001217
302.0,0.001079
302.5,0.002091
303.0,0.003711
303.5,0.004635
304.0,0.004327
304.5,0.006343
305.0,0.009373
305.5,0.01056
306.0,0.01015
306.5,0.01251
307.0,0.01811
307.5,0.02351
308.0,0.02474
308.5,0.02887
309.0,0.0282
309.5,0.03173
310.0,0.03163
310.5,0.05103
311.0,0.06364
311.5,0.06127
312.0,0.06038
312.5,0.07276
313.0,0.07851
313.5,0.07662
314.0,0.09466
314.5,0.08261
315.0,0.1083
315.5,0.09128
316.0,0.07868
316.5,0.1117
317.0,0.1387
317.5,0.1449
318.0,0.1121
318.5,0.1371
319.0,0.1615
319.5,0.1333
320.0,0.1614
320.5,0.1988
321.0,0.1745
321.5,0.1671
322.0,0.1809
322.5,0.1572
323.0,0.155
323.5,0.1887
324.0,0.22
324.5,0.2243
325.0,0.1948
325.5,0.2484
326.0,0.3031
326.5,0.3019
327.0,0.3015
327.5,0.292
328.0,0.2619
328.5,0.2729
329.0,0.3244
329.5,0.3674
330.0,0.3713
330.5,0.2989
331.0,0.3051
331.5,0.3089
332.0,0.3317
332.5,0.3272
333.0,0.3268
333.5,0.2971
334.0,0.3047
334.5,0.3498
335.0,0.3277
335.5,0.3828
336.0,0.2649
336.5,0.3107
337.0,0.2555
337.5,0.318
338.0,0.3092
338.5,0.3569
339.0,0.3532
339.5,0.3398
340.0,0.3995
340.5,0.36
341.0,0.3511
341.5,0.3223
342.0,0.3853
342.5,0.3605
343.0,0.3965
343.5,0.3734
344.0,0.276
344.5,0.2788
345.0,0.3689
345.5,0.3767
346.0,0.3202
346.5,0.3625
347.0,0.3893
347.5,0.3148
348.0,0.3589
348.5,0.3587
349.0,0.3328
349.5,0.3296
350.0,0.4077
350.5,0.4301
351.0,0.3842
351.5,0.3735
352.0,0.4012
352.5,0.3131
353.0,0.3944
353.5,0.4218
354.0,0.4379
354.5,0.4441
355.0,0.4427
355.5,0.4
356.0,0.4185
356.5,0.3574
357.0,0.2954
357.5,0.3616
358.0,0.2866
358.5,0.245
359.0,0.3427
359.5,0.4367
360.0,0.463
360.5,0.3701
361.0,0.3375
361.5,0.3886
362.0,0.3361
362.5,0.4652
363.0,0.4179
363.5,0.385
364.0,0.4709
364.5,0.4026
365.0,0.4101
365.5,0.5147
366.0,0.5455
366.5,0.5126
367.0,0.4992
367.5,0.5182
368.0,0.4535
368.5,0.4577
369.0,0.4944
369.5,0.527
370.0,0.5619
370.5,0.4361
371.0,0.4661
371.5,0.5832
372.0,0.3871
372.5,0.4643
373.0,0.4723
373.5,0.3074
374.0,0.4467
374.5,0.37
375.0,0.3597
375.5,0.5371
376.0,0.4453
376.5,0.4615
377.0,0.4887
377.5,0.5718
378.0,0.62
378.5,0.586
379.0,0.4837
379.5,0.4419
380.0,0.4595
380.5,0.5566
381.0,0.5579
381.5,0.4423
382.0,0.3929
382.5,0.335
383.0,0.3102
383.5,0.2988
384.0,0.3297
384.5,0.4849
385.0,0.481
385.5,0.448
386.0,0.3838
386.5,0.5042
387.0,0.419
387.5,0.4707
388.0,0.4346
388.5,0.4297
389.0,0.4639
389.5,0.562
390.0,0.5641
390.5,0.5192
391.0,0.6112
391.5,0.6235
392.0,0.5253
392.5,0.4703
393.0,0.2617
393.5,0.1903
394.0,0.3873
394.5,0.4924
395.0,0.601
395.5,0.6106
396.0,0.5294
396.5,0.3095
397.0,0.2323
397.5,0.4726
398.0,0.6619
398.5,0.6842
399.0,0.741
399.5,0.7387
400.0,0.7671
401.0,0.7785
402.0,0.8215
403.0,0.7806
404.0,0.7687
405.0,0.7688
406.0,0.7564
407.0,0.7444
408.0,0.7736
409.0,0.8281
410.0,0.7238
411.0,0.7841
412.0,0.8423
413.0,0.8216
414.0,0.8318
415.0,0.8341
416.0,0.8489
417.0,0.8281
418.0,0.813
419.0,0.8238
420.0,0.8203
421.0,0.8582
422.0,0.8159
423.0,0.7971
424.0,0.8431
425.0,0.8417
426.0,0.82
427.0,0.8048
428.0,0.784
429.0,0.7427
430.0,0.6501
431.0,0.6444
432.0,0.8321
433.0,0.8368
434.0,0.7771
435.0,0.8117
436.0,0.9146
437.0,0.9024
438.0,0.8218
439.0,0.8501
440.0,0.8772
441.0,0.909
442.0,0.975
443.0,0.9498
444.0,0.9704
445.0,0.9495
446.0,0.9062
447.0,0.9797
448.0,0.9951
449.0,0.999
450.0,1.027
451.0,1.065
452.0,1.026
453.0,0.9653
454.0,1.008
455.0,1.014
456.0,1.038
457.0,1.056
458.0,1.02
459.0,1.014
460.0,1.017
461.0,1.041
462.0,1.049
463.0,1.041
464.0,1.024
465.0,1.011
466.0,1.021
467.0,1.002
468.0,1.014
469.0,1.02
470.0,0.9871
471.0,0.9859
472.0,1.039
473.0,1.025
474.0,1.027
475.0,1.036
476.0,1.005
477.0,1.008
478.0,1.036
479.0,1.029
480.0,1.031
481.0,1.051
482.0,1.056
483.0,1.043
484.0,1.022
485.0,0.9734
486.0,0.8509
487.0,0.8918
488.0,0.9784
489.0,0.9815
490.0,1.033
491.0,1.015
492.0,0.9582
493.0,0.9896
494.0,0.9995
495.0,1.008
496.0,1.014
497.0,1.03
498.0,0.9818
499.0,0.9944
500.0,0.9655
501.0,0.9478
502.0,0.9346
503.0,0.9728
504.0,0.9484
505.0,0.9821
506.0,1.014
507.0,0.9647
508.0,0.9346
509.0,0.9607
510.0,0.9556
511.0,0.9811
512.0,0.9918
513.0,0.9387
514.0,0.9322
515.0,0.923
516.0,0.9207
517.0,0.8181
518.0,0.8601
519.0,0.9021
520.0,0.935
521.0,0.9439
522.0,0.9447
523.0,0.9277
524.0,0.961
525.0,0.9724
526.0,0.9289
527.0,0.8754
528.0,0.9259
529.0,0.976
530.0,0.962
531.0,0.9763
532.0,0.9427
533.0,0.9151
534.0,0.9422
535.0,0.9627
536.0,0.9715
537.0,0.9331
538.0,0.9496
539.0,0.9416
540.0,0.9028
541.0,0.9089
542.0,0.9374
543.0,0.9274
544.0,0.9436
545.0,0.9407
546.0,0.9448
547.0,0.9444
548.0,0.9331
549.0,0.9359
550.0,0.947
551.0,0.9355
552.0,0.942
553.0,0.9251
554.0,0.9473
555.0,0.9492
556.0,0.9369
557.0,0.9078
558.0,0.901
559.0,0.8842
560.0,0.8953
561.0,0.9069
562.0,0.9004
563.0,0.925
564.0,0.8998
565.0,0.8921
566.0,0.879
567.0,0.8957
568.0,0.8879
569.0,0.8669
570.0,0.8667
571.0,0.8614
572.0,0.8822
573.0,0.8917
574.0,0.8889
575.0,0.8723
576.0,0.8643
577.0,0.8737
578.0,0.8606
579.0,0.8639
580.0,0.8802
581.0,0.8846
582.0,0.9013
583.0,0.9034
584.0,0.9112
585.0,0.8889
586.0,0.8707
587.0,0.8898
588.0,0.8684
589.0,0.7698
590.0,0.805
591.0,0.8516
592.0,0.841
593.0,0.8532
594.0,0.8474
595.0,0.8266
596.0,0.8589
597.0,0.8497
598.0,0.8474
599.0,0.8481
600.0,0.8492
601.0,0.8422
602.0,0.8365
603.0,0.8503
604.0,0.8643
605.0,0.8599
606.0,0.8563
607.0,0.8647
608.0,0.8551
609.0,0.8566
610.0,0.8504
611.0,0.8548
612.0,0.8523
613.0,0.8416
614.0,0.8301
615.0,0.8481
616.0,0.8202
617.0,0.8185
618.0,0.85
619.0,0.8413
620.0,0.8467
621.0,0.8475
622.0,0.8376
623.0,0.8249
624.0,0.8107
625.0,0.8089
626.0,0.8209
627.0,0.8301
628.0,0.7761
629.0,0.8108
630.0,0.7921
631.0,0.8097
632.0,0.8
633.0,0.8242
634.0,0.8161
635.0,0.8288
636.0,0.8177
637.0,0.8311
638.0,0.839
639.0,0.8296
640.0,0.8215
641.0,0.8209
642.0,0.8172
643.0,0.8282
644.0,0.8255
645.0,0.8268
646.0,0.8076
647.0,0.7983
648.0,0.799
649.0,0.7836
650.0,0.7871
651.0,0.8211
652.0,0.7873
653.0,0.8102
654.0,0.8012
655.0,0.7715
656.0,0.6837
657.0,0.7021
658.0,0.7867
659.0,0.7923
660.0,0.7956
661.0,0.8012
662.0,0.8028
663.0,0.7869
664.0,0.7962
665.0,0.7968
666.0,0.7974
667.0,0.7966
668.0,0.7969
669.0,0.8092
670.0,0.8057
671.0,0.8055
672.0,0.7986
673.0,0.8106
674.0,0.8076
675.0,0.8002
676.0,0.8057
677.0,0.7977
678.0,0.7999
679.0,0.787
680.0,0.7933
681.0,0.7881
682.0,0.7871
683.0,0.7855
684.0,0.7816
685.0,0.7883
686.0,0.7836
687.0,0.5237
688.0,0.6122
689.0,0.6143
690.0,0.6438
691.0,0.677
692.0,0.7011
693.0,0.6954
694.0,0.6896
695.0,0.7177
696.0,0.7187
697.0,0.7622
698.0,0.7504
699.0,0.7328
700.0,0.7239
701.0,0.7167
702.0,0.7215
703.0,0.7229
704.0,0.7458
705.0,0.7469
706.0,0.7462
707.0,0.7467
708.0,0.7483
709.0,0.7493
710.0,0.7493
711.0,0.7482
712.0,0.7459
713.0,0.7385
714.0,0.7412
715.0,0.718
716.0,0.7184
717.0,0.6244
718.0,0.5736
719.0,0.5256
720.0,0.5507
721.0,0.6071
722.0,0.6938
723.0,0.6463
724.0,0.5828
725.0,0.5736
726.0,0.6003
727.0,0.6086
728.0,0.5722
729.0,0.5932
730.0,0.6277
731.0,0.6007
732.0,0.642
733.0,0.6792
734.0,0.6952
735.0,0.6809
736.0,0.68
737.0,0.6827
738.0,0.6929
739.0,0.6793
740.0,0.6969
741.0,0.6899
742.0,0.6905
743.0,0.708
744.0,0.706
745.0,0.7061
746.0,0.7093
747.0,0.7109
748.0,0.7094
749.0,0.7013
750.0,0.7009
751.0,0.6938
752.0,0.6967
753.0,0.7003
754.0,0.7018
755.0,0.6979
756.0,0.6976
757.0,0.6986
758.0,0.6899
759.0,0.6761
760.0,0.1146
761.0,0.06043
762.0,0.348
763.0,0.1747
764.0,0.2619
765.0,0.348
766.0,0.4265
767.0,0.5373
768.0,0.6195
769.0,0.6324
770.0,0.6538
771.0,0.659
772.0,0.6604
773.0,0.665
774.0,0.6617
775.0,0.6567
776.0,0.6647
777.0,0.6559
778.0,0.652
779.0,0.6525
780.0,0.6488
781.0,0.6495
782.0,0.6536
783.0,0.6422
784.0,0.6453
785.0,0.6405
786.0,0.6476
787.0,0.6363
788.0,0.6285
789.0,0.6282
790.0,0.6116
791.0,0.6168
792.0,0.6122
793.0,0.6024
794.0,0.6125
795.0,0.6229
796.0,0.6039
797.0,0.6047
798.0,0.6222
799.0,0.6182
800.0,0.6075
801.0,0.6057
802.0,0.6039
803.0,0.5994
804.0,0.6002
805.0,0.5982
806.0,0.615
807.0,0.6076
808.0,0.6081
809.0,0.5967
810.0,0.5919
811.0,0.5927
812.0,0.5759
813.0,0.5639
814.0,0.4965
815.0,0.4934
816.0,0.4593
817.0,0.4677
818.0,0.4502
819.0,0.5031
820.0,0.4739
821.0,0.5536
822.0,0.5378
823.0,0.3663
824.0,0.5223
825.0,0.544
826.0,0.5234
827.0,0.5523
828.0,0.4685
829.0,0.5202
830.0,0.5135
831.0,0.5152
832.0,0.4995
833.0,0.5313
834.0,0.5126
835.0,0.5629
836.0,0.5389
837.0,0.5645
838.0,0.547
839.0,0.556
840.0,0.5682
841.0,0.5601
842.0,0.5613
843.0,0.561
844.0,0.5532
845.0,0.5719
846.0,0.5694
847.0,0.5588
848.0,0.5553
849.0,0.5395
850.0,0.5169
851.0,0.5473
852.0,0.5434
853.0,0.5231
854.0,0.4517
855.0,0.4962
856.0,0.5423
857.0,0.5544
858.0,0.5503
859.0,0.5508
860.0,0.5518
861.0,0.5488
862.0,0.5574
863.0,0.5706
864.0,0.542
865.0,0.5373
866.0,0.4831
867.0,0.5042
868.0,0.5486
869.0,0.5373
870.0,0.5526
871.0,0.5451
872.0,0.5431
873.0,0.542
874.0,0.5356
875.0,0.5247
876.0,0.5302
877.0,0.5356
878.0,0.5414
879.0,0.533
880.0,0.5216
881.0,0.5138
882.0,0.5249
883.0,0.5265
884.0,0.5241
885.0,0.5281
886.0,0.5032
887.0,0.5086
888.0,0.516
889.0,0.522
890.0,0.5175
891.0,0.5167
892.0,0.5017
893.0,0.4858
894.0,0.4684
895.0,0.4422
896.0,0.4164
897.0,0.3572
898.0,0.39
899.0,0.296
900.0,0.3997
901.0,0.3103
902.0,0.365
903.0,0.3683
904.0,0.4649
905.0,0.4487
906.0,0.4198
907.0,0.3402
908.0,0.3471
909.0,0.3764
910.0,0.3321
911.0,0.3545
912.0,0.3707
913.0,0.337
914.0,0.3343
915.0,0.3624
916.0,0.3065
917.0,0.3899
918.0,0.3142
919.0,0.3972
920.0,0.4017
921.0,0.4179
922.0,0.373
923.0,0.4037
924.0,0.3822
925.0,0.3739
926.0,0.3779
927.0,0.4237
928.0,0.3089
929.0,0.2814
930.0,0.2202
931.0,0.2087
932.0,0.1492
933.0,0.1207
934.0,0.06492
935.0,0.124
936.0,0.07662
937.0,0.07755
938.0,0.09571
939.0,0.2022
940.0,0.2441
941.0,0.1831
942.0,0.2127
943.0,0.139
944.0,0.1472
945.0,0.189
946.0,0.09495
947.0,0.1896
948.0,0.1391
949.0,0.255
950.0,0.06891
951.0,0.2513
952.0,0.1333
953.0,0.1733
954.0,0.2138
955.0,0.1754
956.0,0.1711
957.0,0.1334
958.0,0.2441
959.0,0.1925
960.0,0.2158
961.0,0.2433
962.0,0.2301
963.0,0.2662
964.0,0.2436
965.0,0.2653
966.0,0.2651
967.0,0.2639
968.0,0.3573
969.0,0.3729
970.0,0.342
971.0,0.393
972.0,0.3756
973.0,0.3255
974.0,0.3087
975.0,0.321
976.0,0.304
977.0,0.3476
978.0,0.3295
979.0,0.3457
980.0,0.3247
981.0,0.3907
982.0,0.373
983.0,0.3578
984.0,0.4032
985.0,0.3716
986.0,0.4107
987.0,0.4022
988.0,0.4015
989.0,0.4097
990.0,0.3991
991.0,0.4109
992.0,0.4133
993.0,0.4037
994.0,0.4132
995.0,0.4128
996.0,0.4109
997.0,0.4115
998.0,0.4095
999.0,0.4081
1000.0,0.4051
1001.0,0.4103
1002.0,0.3985
1003.0,0.403
1004.0,0.393
1005.0,0.3788
1006.0,0.3935
1007.0,0.4019
1008.0,0.3996
1009.0,0.3974
1010.0,0.3957
1011.0,0.3999
1012.0,0.3963
1013.0,0.3989
1014.0,0.3961
1015.0,0.3935
1016.0,0.3917
1017.0,0.3927
1018.0,0.3913
1019.0,0.3827
1020.0,0.3892
1021.0,0.3887
1022.0,0.3856
1023.0,0.3896
1024.0,0.3844
1025.0,0.3894
1026.0,0.3877
1027.0,0.3868
1028.0,0.386
1029.0,0.3814
1030.0,0.3841
1031.0,0.3826
1032.0,0.3815
1033.0,0.3757
1034.0,0.3757
1035.0,0.3769
1036.0,0.3788
1037.0,0.3727
1038.0,0.3743
1039.0,0.3741
1040.0,0.3726
1041.0,0.3741
1042.0,0.3714
1043.0,0.3703
1044.0,0.3715
1045.0,0.3665
1046.0,0.3624
1047.0,0.3657
1048.0,0.3677
1049.0,0.3663
1050.0,0.3646
1051.0,0.3641
1052.0,0.3626
1053.0,0.3597
1054.0,0.3605
1055.0,0.3606
1056.0,0.3593
1057.0,0.3582
1058.0,0.3494
1059.0,0.3497
1060.0,0.3492
1061.0,0.3487
1062.0,0.3505
1063.0,0.3471
1064.0,0.3512
1065.0,0.3486
1066.0,0.3417
1067.0,0.3461
1068.0,0.3385
1069.0,0.3281
1070.0,0.3392
1071.0,0.3446
1072.0,0.3405
1073.0,0.3357
1074.0,0.3445
1075.0,0.3268
1076.0,0.3442
1077.0,0.3378
1078.0,0.3313
1079.0,0.3388
1080.0,0.3326
1081.0,0.3217
1082.0,0.3273
1083.0,0.3284
1084.0,0.3208
1085.0,0.3334
1086.0,0.3035
1087.0,0.3138
1088.0,0.3279
1089.0,0.3174
1090.0,0.3101
1091.0,0.3267
1092.0,0.326
1093.0,0.2751
1094.0,0.2981
1095.0,0.2868
1096.0,0.2742
1097.0,0.3185
1098.0,0.2697
1099.0,0.2816
1100.0,0.2612
1101.0,0.2646
1102.0,0.2524
1103.0,0.2497
1104.0,0.25
1105.0,0.275
1106.0,0.2082
1107.0,0.2608
1108.0,0.2197
1109.0,0.2204
1110.0,0.2583
1111.0,0.1734
1112.0,0.2188
1113.0,0.1374
1114.0,0.1538
1115.0,0.1274
1116.0,0.1006
1117.0,0.0357
1118.0,0.1098
1119.0,0.05347
1120.0,0.06723
1121.0,0.08986
1122.0,0.03692
1123.0,0.0608
1124.0,0.0513
1125.0,0.06718
1126.0,0.02249
1127.0,0.07587
1128.0,0.04441
1129.0,0.04726
1130.0,0.03073
1131.0,0.1463
1132.0,0.1143
1133.0,0.07114
1134.0,0.01745
1135.0,0.006582
1136.0,0.05889
1137.0,0.1432
1138.0,0.1007
1139.0,0.1526
1140.0,0.1265
1141.0,0.09567
1142.0,0.1106
1143.0,0.158
1144.0,0.05399
1145.0,0.06864
1146.0,0.07402
1147.0,0.0251
1148.0,0.1367
1149.0,0.1084
1150.0,0.0582
1151.0,0.09986
1152.0,0.1238
1153.0,0.1213
1154.0,0.06639
1155.0,0.1591
1156.0,0.1428
1157.0,0.161
1158.0,0.1593
1159.0,0.1724
1160.0,0.1467
1161.0,0.1819
1162.0,0.1827
1163.0,0.2485
1164.0,0.2125
1165.0,0.1999
1166.0,0.199
1167.0,0.217
1168.0,0.2193
1169.0,0.2247
1170.0,0.2446
1171.0,0.2385
1172.0,0.243
1173.0,0.2441
1174.0,0.1734
1175.0,0.2386
1176.0,0.2627
1177.0,0.2519
1178.0,0.1886
1179.0,0.2649
1180.0,0.236
1181.0,0.2435
1182.0,0.1674
1183.0,0.2399
1184.0,0.2246
1185.0,0.2166
1186.0,0.2573
1187.0,0.245
1188.0,0.1702
1189.0,0.2282
1190.0,0.2515
1191.0,0.2385
1192.0,0.2551
1193.0,0.2443
1194.0,0.2519
1195.0,0.2381
1196.0,0.2292
1197.0,0.2521
1198.0,0.2305
1199.0,0.1958
1200.0,0.2412
1201.0,0.2326
1202.0,0.2313
1203.0,0.2293
1204.0,0.2004
1205.0,0.2368
1206.0,0.2617
1207.0,0.2307
1208.0,0.2271
1209.0,0.2318
1210.0,0.2415
1211.0,0.2299
1212.0,0.2271
1213.0,0.253
1214.0,0.2325
1215.0,0.2281
1216.0,0.2522
1217.0,0.2455
1218.0,0.2502
1219.0,0.2471
1220.0,0.2504
1221.0,0.2529
1222.0,0.2463
1223.0,0.244
1224.0,0.2425
1225.0,0.2513
1226.0,0.253
1227.0,0.2333
1228.0,0.2543
1229.0,0.253
1230.0,0.2487
1231.0,0.2558
1232.0,0.2543
1233.0,0.2455
1234.0,0.2556
1235.0,0.254
1236.0,0.2558
1237.0,0.2523
1238.0,0.255
1239.0,0.2517
1240.0,0.2527
1241.0,0.2515
1242.0,0.2509
1243.0,0.2489
1244.0,0.2507
1245.0,0.2517
1246.0,0.2503
1247.0,0.2493
1248.0,0.2491
1249.0,0.2499
1250.0,0.2484
1251.0,0.2452
1252.0,0.2452
1253.0,0.2432
1254.0,0.2408
1255.0,0.245
1256.0,0.2381
1257.0,0.2367
1258.0,0.2412
1259.0,0.2324
1260.0,0.2336
1261.0,0.2204
1262.0,0.2138
1263.0,0.2142
1264.0,0.1976
1265.0,0.2128
1266.0,0.2047
1267.0,0.2083
1268.0,0.1975
1269.0,0.122
1270.0,0.2076
1271.0,0.2197
1272.0,0.2204
1273.0,0.2181
1274.0,0.2188
1275.0,0.222
1276.0,0.2241
1277.0,0.2257
1278.0,0.23
1279.0,0.228
1280.0,0.2251
1281.0,0.2148
1282.0,0.207
1283.0,0.2229
1284.0,0.2282
1285.0,0.2297
1286.0,0.2328
1287.0,0.2292
1288.0,0.2292
1289.0,0.2219
1290.0,0.2272
1291.0,0.2304
1292.0,0.2163
1293.0,0.2259
1294.0,0.2243
1295.0,0.2231
1296.0,0.213
1297.0,0.2014
1298.0,0.2169
1299.0,0.2261
1300.0,0.1912
1301.0,0.1971
1302.0,0.2162
1303.0,0.1887
1304.0,0.1607
1305.0,0.2117
1306.0,0.2117
1307.0,0.1643
1308.0,0.1891
1309.0,0.2101
1310.0,0.1612
1311.0,0.1812
1312.0,0.1763
1313.0,0.1728
1314.0,0.1546
1315.0,0.1525
1316.0,0.1783
1317.0,0.1689
1318.0,0.1836
1319.0,0.1431
1320.0,0.1388
1321.0,0.1618
1322.0,0.1633
1323.0,0.1225
1324.0,0.1404
1325.0,0.1757
1326.0,0.1506
1327.0,0.1435
1328.0,0.1236
1329.0,0.09244
1330.0,0.1206
1331.0,0.07219
1332.0,0.07475
1333.0,0.1042
1334.0,0.08853
1335.0,0.1221
1336.0,0.09622
1337.0,0.08491
1338.0,0.09189
1339.0,0.09157
1340.0,0.08923
1341.0,0.08674
1342.0,0.09115
1343.0,0.06089
1344.0,0.03651
1345.0,0.05271
1346.0,0.02563
1347.0,0.02597
1348.0,0.001612
1349.0,0.005867
1350.0,0.00615
1351.0,0.001437
1352.0,0.0003723
1353.0,1.821e-05
1354.0,6.458e-05
1355.0,4.77e-07
1356.0,8.873e-06
1357.0,1.353e-05
1358.0,5.671e-07
1359.0,6.697e-08
1360.0,2.535e-07
1361.0,2.466e-10
1362.0,6.373e-13
1363.0,3.367e-07
1364.0,1.39e-07
1365.0,2.075e-13
1366.0,1.498e-06
1367.0,6.213e-07
1368.0,1.386e-15
1369.0,5.18e-08
1370.0,2.487e-08
1371.0,1.366e-09
1372.0,3.421e-07
1373.0,7.234e-06
1374.0,3.471e-05
1375.0,6.301e-05
1376.0,5.822e-05
1377.0,2.649e-05
1378.0,0.0002632
1379.0,1.112e-05
1380.0,1.572e-05
1381.0,4.033e-07
1382.0,3.061e-07
1383.0,4.477e-09
1384.0,5.794e-08
1385.0,2.99e-07
1386.0,2.676e-07
1387.0,3.535e-05
1388.0,6.977e-07
1389.0,0.0001243
1390.0,0.0001069
1391.0,7.087e-05
1392.0,4.562e-06
1393.0,2.465e-05
1394.0,1.211e-05
1395.0,8.589e-08
1396.0,3.624e-10
1397.0,9.694e-06
1398.0,0.0002947
1399.0,0.0001871
1400.0,1.509e-10
1401.0,6.612e-10
1402.0,0.0005461
1403.0,0.0006803
1404.0,0.0002065
1405.0,4.083e-08
1406.0,0.0005293
1407.0,4.729e-05
1408.0,0.0004342
1409.0,0.0001416
1410.0,0.0001156
1411.0,0.0005994
1412.0,0.0008204
1413.0,0.008859
1414.0,9.157e-05
1415.0,4.336e-05
1416.0,0.01508
1417.0,0.004369
1418.0,0.004942
1419.0,0.0007586
1420.0,0.003017
1421.0,0.003267
1422.0,0.01973
1423.0,0.003771
1424.0,0.007124
1425.0,0.01039
1426.0,0.01203
1427.0,0.02269
1428.0,0.001508
1429.0,0.01669
1430.0,0.02917
1431.0,0.03224
1432.0,0.001183
1433.0,0.02024
1434.0,0.01016
1435.0,0.009697
1436.0,0.01943
1437.0,0.0149
1438.0,0.006094
1439.0,0.02674
1440.0,0.02002
1441.0,0.01487
