interpolation:linear
wavelength,value
280.0,2.478e-22
280.5,8.162e-21
281.0,4.3780000000000005e-20
281.5,3.944e-19
282.0,6.404e-19
282.5,1.588e-18
283.0,5.026e-18
283.5,8.185e-18
284.0,1.35e-16
284.5,3.941e-16
285.0,6.461e-16
285.5,3.229e-15
286.0,1.303e-14
286.5,5.874e-14
287.0,1.687e-13
287.5,6.511e-13
288.0,2.272e-12
288.5,6.816e-12
289.0,1.806e-11
289.5,5.436e-11
290.0,1.507e-10
290.5,3.069e-10
291.0,6.585e-10
291.5,1.89e-09
292.0,3.798e-09
292.5,5.337e-09
293.0,1.147e-08
293.5,2.798e-08
294.0,4.382e-08
294.5,6.005e-08
295.0,1.019e-07
295.5,1.7e-07
296.0,3.304e-07
296.5,4.659e-07
297.0,6.349e-07
297.5,1.725e-06
298.0,2.753e-06
298.5,2.798e-06
299.0,6.24e-06
299.5,1.06e-05
300.0,1.182e-05
300.5,1.737e-05
301.0,3.227e-05
301.5,5.272e-05
302.0,4.566e-05
302.5,9.204e-05
303.0,0.000173
303.5,0.0002259
304.0,0.0002202
304.5,0.0003624
305.0,0.0006331
305.5,0.0007949
306.0,0.0007976
306.5,0.001055
307.0,0.001795
307.5,0.00273
308.0,0.002947
308.5,0.003725
309.0,0.003753
309.5,0.004783
310.0,0.005048
310.5,0.008378
311.0,0.01094
311.5,0.01075
312.0,0.01171
312.5,0.01508
313.0,0.01685
313.5,0.01592
314.0,0.0213
314.5,0.02064
315.0,0.02756
315.5,0.02209
316.0,0.02073
316.5,0.03166
317.0,0.03927
317.5,0.04016
318.0,0.03268
318.5,0.04396
319.0,0.05432
319.5,0.0415
320.0,0.04967
320.5,0.06745
321.0,0.06463
321.5,0.06242
322.0,0.06152
322.5,0.05374
323.0,0.05634
323.5,0.07269
324.0,0.08557
324.5,0.08509
325.0,0.07156
325.5,0.09592
326.0,0.1188
326.5,0.1223
327.0,0.1207
327.5,0.1151
328.0,0.09896
328.5,0.1086
329.0,0.1346
329.5,0.1545
330.0,0.1546
330.5,0.1205
331.0,0.1217
331.5,0.1262
332.0,0.1404
332.5,0.1407
333.0,0.1393
333.5,0.1234
334.0,0.1261
334.5,0.1491
335.0,0.1421
335.5,0.1666
336.0,0.1153
336.5,0.1337
337.0,0.1086
337.5,0.1347
338.0,0.1342
338.5,0.1558
339.0,0.1544
339.5,0.1485
340.0,0.1738
340.5,0.157
341.0,0.1537
341.5,0.1415
342.0,0.1693
342.5,0.1586
343.0,0.1743
343.5,0.164
344.0,0.1208
344.5,0.1224
345.0,0.1624
345.5,0.1662
346.0,0.1414
346.5,0.1603
347.0,0.172
347.5,0.1391
348.0,0.1589
348.5,0.159
349.0,0.1477
349.5,0.1463
350.0,0.1811
350.5,0.1911
351.0,0.1707
351.5,0.1657
352.0,0.1783
352.5,0.1393
353.0,0.1758
353.5,0.1881
354.0,0.1954
354.5,0.1983
355.0,0.1977
355.5,0.1788
356.0,0.1872
356.5,0.1599
357.0,0.1322
357.5,0.1619
358.0,0.1284
358.5,0.1098
359.0,0.1536
359.5,0.1957
360.0,0.2076
360.5,0.1661
361.0,0.1515
361.5,0.1747
362.0,0.1513
362.5,0.2096
363.0,0.1885
363.5,0.1738
364.0,0.2127
364.5,0.1819
365.0,0.1854
365.5,0.2329
366.0,0.2469
366.5,0.2323
367.0,0.2263
367.5,0.235
368.0,0.2058
368.5,0.2078
369.0,0.2246
369.5,0.2396
370.0,0.2556
370.5,0.1986
371.0,0.2123
371.5,0.2658
372.0,0.1765
372.5,0.2118
373.0,0.2157
373.5,0.1404
374.0,0.2042
374.5,0.1693
375.0,0.1646
375.5,0.2459
376.0,0.204
376.5,0.2115
377.0,0.2241
377.5,0.2624
378.0,0.2845
378.5,0.2691
379.0,0.2221
379.5,0.203
380.0,0.2112
380.5,0.256
381.0,0.2568
381.5,0.2038
382.0,0.1812
382.5,0.1546
383.0,0.1433
383.5,0.1381
384.0,0.1525
384.5,0.2244
385.0,0.2227
385.5,0.2076
386.0,0.178
386.5,0.234
387.0,0.1945
387.5,0.2186
388.0,0.202
388.5,0.1999
389.0,0.2159
389.5,0.2617
390.0,0.2628
390.5,0.242
391.0,0.2851
391.5,0.291
392.0,0.2452
392.5,0.2197
393.0,0.1224
393.5,0.08904
394.0,0.1813
394.5,0.2307
395.0,0.2817
395.5,0.2863
396.0,0.2484
396.5,0.1453
397.0,0.1092
397.5,0.2221
398.0,0.3112
398.5,0.3218
399.0,0.3489
399.5,0.348
400.0,0.3615
401.0,0.3645
402.0,0.3852
403.0,0.3665
404.0,0.3613
405.0,0.3617
406.0,0.3564
407.0,0.3512
408.0,0.3651
409.0,0.3913
410.0,0.3424
411.0,0.3714
412.0,0.3996
413.0,0.39
414.0,0.3953
415.0,0.3969
416.0,0.4045
417.0,0.395
418.0,0.3881
419.0,0.3937
420.0,0.3923
421.0,0.4109
422.0,0.391
423.0,0.3823
424.0,0.4046
425.0,0.4044
426.0,0.3946
427.0,0.3876
428.0,0.3779
429.0,0.3586
430.0,0.3142
431.0,0.3115
432.0,0.4028
433.0,0.4054
434.0,0.3767
435.0,0.3936
436.0,0.4442
437.0,0.439
438.0,0.4002
439.0,0.4135
440.0,0.4272
441.0,0.4432
442.0,0.4757
443.0,0.4632
444.0,0.4739
445.0,0.4638
446.0,0.4435
447.0,0.4803
448.0,0.4875
449.0,0.4904
450.0,0.5046
451.0,0.5237
452.0,0.505
453.0,0.4754
454.0,0.497
455.0,0.5002
456.0,0.5124
457.0,0.5211
458.0,0.503
459.0,0.5007
460.0,0.5019
461.0,0.5137
462.0,0.5183
463.0,0.5149
464.0,0.5073
465.0,0.5018
466.0,0.5073
467.0,0.4979
468.0,0.5039
469.0,0.5066
470.0,0.4904
471.0,0.49
472.0,0.5164
473.0,0.5097
474.0,0.51
475.0,0.5138
476.0,0.4976
477.0,0.4984
478.0,0.5126
479.0,0.5099
480.0,0.5114
481.0,0.5217
482.0,0.5252
483.0,0.5198
484.0,0.5097
485.0,0.4862
486.0,0.4256
487.0,0.4467
488.0,0.49
489.0,0.4913
490.0,0.5174
491.0,0.5089
492.0,0.4806
493.0,0.4965
494.0,0.5016
495.0,0.506
496.0,0.5092
497.0,0.517
498.0,0.4928
499.0,0.4987
500.0,0.4838
501.0,0.4743
502.0,0.4667
503.0,0.4845
504.0,0.4692
505.0,0.4885
506.0,0.5042
507.0,0.48
508.0,0.466
509.0,0.4798
510.0,0.4779
511.0,0.4914
512.0,0.4971
513.0,0.4706
514.0,0.4677
515.0,0.463
516.0,0.4618
517.0,0.4105
518.0,0.4315
519.0,0.4525
520.0,0.4689
521.0,0.4732
522.0,0.4734
523.0,0.4646
524.0,0.4807
525.0,0.4856
526.0,0.4636
527.0,0.4362
528.0,0.4608
529.0,0.4853
530.0,0.478
531.0,0.4848
532.0,0.468
533.0,0.4543
534.0,0.468
535.0,0.4786
536.0,0.4833
537.0,0.4646
538.0,0.473
539.0,0.469
540.0,0.4495
541.0,0.4515
542.0,0.4652
543.0,0.461
544.0,0.4683
545.0,0.467
546.0,0.4683
547.0,0.4687
548.0,0.4635
549.0,0.4651
550.0,0.4707
551.0,0.4651
552.0,0.4684
553.0,0.4598
554.0,0.4708
555.0,0.4715
556.0,0.4652
557.0,0.4505
558.0,0.4466
559.0,0.4377
560.0,0.4429
561.0,0.4481
562.0,0.4443
563.0,0.4557
564.0,0.4428
565.0,0.4385
566.0,0.4316
567.0,0.4391
568.0,0.4336
569.0,0.4202
570.0,0.4205
571.0,0.4187
572.0,0.4267
573.0,0.4309
574.0,0.4291
575.0,0.4203
576.0,0.4165
577.0,0.4214
578.0,0.4159
579.0,0.4191
580.0,0.4293
581.0,0.4332
582.0,0.443
583.0,0.4453
584.0,0.4501
585.0,0.4396
586.0,0.4306
587.0,0.4391
588.0,0.4245
589.0,0.3687
590.0,0.3861
591.0,0.4131
592.0,0.4053
593.0,0.4147
594.0,0.4104
595.0,0.3974
596.0,0.4193
597.0,0.4131
598.0,0.4139
599.0,0.4151
600.0,0.4173
601.0,0.4151
602.0,0.4124
603.0,0.4199
604.0,0.4272
605.0,0.4253
606.0,0.4242
607.0,0.4292
608.0,0.4251
609.0,0.4265
610.0,0.4241
611.0,0.4267
612.0,0.4259
613.0,0.4209
614.0,0.4158
615.0,0.4254
616.0,0.4119
617.0,0.4114
618.0,0.4276
619.0,0.4234
620.0,0.4261
621.0,0.426
622.0,0.4206
623.0,0.4138
624.0,0.4071
625.0,0.4062
626.0,0.412
627.0,0.4152
628.0,0.3703
629.0,0.3993
630.0,0.3895
631.0,0.4042
632.0,0.4005
633.0,0.4151
634.0,0.4131
635.0,0.4205
636.0,0.4161
637.0,0.4238
638.0,0.4292
639.0,0.4251
640.0,0.4219
641.0,0.4222
642.0,0.4211
643.0,0.4268
644.0,0.4262
645.0,0.4265
646.0,0.4144
647.0,0.4046
648.0,0.4052
649.0,0.3967
650.0,0.4049
651.0,0.4235
652.0,0.3997
653.0,0.4183
654.0,0.4142
655.0,0.3956
656.0,0.3528
657.0,0.3627
658.0,0.4085
659.0,0.4122
660.0,0.4144
661.0,0.4175
662.0,0.4172
663.0,0.4094
664.0,0.416
665.0,0.4177
666.0,0.4186
667.0,0.4189
668.0,0.4198
669.0,0.4268
670.0,0.4253
671.0,0.4255
672.0,0.4221
673.0,0.4288
674.0,0.4275
675.0,0.4239
676.0,0.4271
677.0,0.4231
678.0,0.4246
679.0,0.4179
680.0,0.4214
681.0,0.4188
682.0,0.4183
683.0,0.4175
684.0,0.4154
685.0,0.4193
686.0,0.4165
687.0,0.2052
688.0,0.271
689.0,0.2731
690.0,0.2977
691.0,0.3268
692.0,0.3499
693.0,0.3464
694.0,0.3451
695.0,0.3686
696.0,0.3696
697.0,0.4029
698.0,0.3964
699.0,0.3796
700.0,0.3746
701.0,0.368
702.0,0.3734
703.0,0.3748
704.0,0.3912
705.0,0.3917
706.0,0.393
707.0,0.3941
708.0,0.3947
709.0,0.3983
710.0,0.3967
711.0,0.3972
712.0,0.3974
713.0,0.3921
714.0,0.394
715.0,0.3785
716.0,0.378
717.0,0.3015
718.0,0.2747
719.0,0.2496
720.0,0.2587
721.0,0.3005
722.0,0.36
723.0,0.3272
724.0,0.2849
725.0,0.2772
726.0,0.2909
727.0,0.3017
728.0,0.2753
729.0,0.2947
730.0,0.3098
731.0,0.2947
732.0,0.3249
733.0,0.3528
734.0,0.3641
735.0,0.355
736.0,0.3542
737.0,0.3556
738.0,0.3682
739.0,0.3611
740.0,0.3726
741.0,0.3702
742.0,0.3719
743.0,0.3817
744.0,0.3815
745.0,0.3822
746.0,0.384
747.0,0.385
748.0,0.3843
749.0,0.38
750.0,0.3798
751.0,0.376
752.0,0.3777
753.0,0.3797
754.0,0.3806
755.0,0.3784
756.0,0.3783
757.0,0.3788
758.0,0.374
759.0,0.3618
760.0,0.01707
761.0,0.006001
762.0,0.1151
763.0,0.03469
764.0,0.06969
765.0,0.1149
766.0,0.1688
767.0,0.2467
768.0,0.3157
769.0,0.3298
770.0,0.3497
771.0,0.3564
772.0,0.3584
773.0,0.3612
774.0,0.3597
775.0,0.3572
776.0,0.3616
777.0,0.3569
778.0,0.3547
779.0,0.355
780.0,0.3531
781.0,0.3535
782.0,0.3558
783.0,0.3497
784.0,0.3516
785.0,0.3487
786.0,0.3522
787.0,0.3426
788.0,0.3367
789.0,0.3364
790.0,0.3228
791.0,0.3303
792.0,0.3286
793.0,0.3228
794.0,0.333
795.0,0.3374
796.0,0.3204
797.0,0.3203
798.0,0.3362
799.0,0.3328
800.0,0.3255
801.0,0.3229
802.0,0.3219
803.0,0.3186
804.0,0.3198
805.0,0.3207
806.0,0.3331
807.0,0.3283
808.0,0.3289
809.0,0.3202
810.0,0.316
811.0,0.313
812.0,0.2995
813.0,0.2915
814.0,0.2442
815.0,0.2436
816.0,0.2252
817.0,0.2301
818.0,0.2186
819.0,0.2548
820.0,0.2363
821.0,0.2918
822.0,0.281
823.0,0.168
824.0,0.2668
825.0,0.2868
826.0,0.2708
827.0,0.2909
828.0,0.2318
829.0,0.2702
830.0,0.2655
831.0,0.2665
832.0,0.2556
833.0,0.2788
834.0,0.2643
835.0,0.3013
836.0,0.281
837.0,0.3024
838.0,0.2891
839.0,0.2984
840.0,0.3059
841.0,0.2999
842.0,0.3031
843.0,0.3056
844.0,0.2999
845.0,0.3119
846.0,0.311
847.0,0.306
848.0,0.3029
849.0,0.2943
850.0,0.2821
851.0,0.2974
852.0,0.296
853.0,0.2858
854.0,0.246
855.0,0.2714
856.0,0.2961
857.0,0.3035
858.0,0.3009
859.0,0.3017
860.0,0.3026
861.0,0.3008
862.0,0.3058
863.0,0.313
864.0,0.2974
865.0,0.2949
866.0,0.2652
867.0,0.2768
868.0,0.3012
869.0,0.295
870.0,0.3035
871.0,0.2993
872.0,0.2983
873.0,0.2978
874.0,0.2942
875.0,0.2882
876.0,0.2911
877.0,0.2942
878.0,0.2972
879.0,0.2926
880.0,0.2864
881.0,0.2815
882.0,0.2874
883.0,0.2889
884.0,0.2873
885.0,0.2895
886.0,0.2737
887.0,0.2783
888.0,0.2815
889.0,0.2865
890.0,0.2819
891.0,0.2825
892.0,0.2714
893.0,0.2602
894.0,0.245
895.0,0.224
896.0,0.2091
897.0,0.1711
898.0,0.1908
899.0,0.1358
900.0,0.2009
901.0,0.1423
902.0,0.1795
903.0,0.1767
904.0,0.243
905.0,0.232
906.0,0.2147
907.0,0.1606
908.0,0.1666
909.0,0.1857
910.0,0.154
911.0,0.172
912.0,0.1803
913.0,0.1557
914.0,0.1566
915.0,0.1688
916.0,0.1415
917.0,0.1896
918.0,0.1442
919.0,0.1967
920.0,0.2064
921.0,0.2142
922.0,0.1839
923.0,0.2078
924.0,0.1864
925.0,0.1829
926.0,0.1835
927.0,0.2129
928.0,0.1348
929.0,0.1176
930.0,0.08382
931.0,0.07953
932.0,0.04904
933.0,0.03648
934.0,0.01359
935.0,0.03995
936.0,0.02052
937.0,0.02063
938.0,0.02689
939.0,0.07683
940.0,0.09879
941.0,0.06664
942.0,0.08117
943.0,0.04752
944.0,0.05602
945.0,0.07046
946.0,0.02824
947.0,0.06866
948.0,0.04972
949.0,0.09977
950.0,0.01764
951.0,0.09921
952.0,0.04378
953.0,0.06282
954.0,0.08433
955.0,0.06434
956.0,0.07003
957.0,0.04335
958.0,0.1074
959.0,0.07589
960.0,0.08509
961.0,0.103
962.0,0.09709
963.0,0.1186
964.0,0.1067
965.0,0.1179
966.0,0.1171
967.0,0.1156
968.0,0.1819
969.0,0.1858
970.0,0.1683
971.0,0.2046
972.0,0.193
973.0,0.1561
974.0,0.1472
975.0,0.1567
976.0,0.142
977.0,0.1757
978.0,0.161
979.0,0.1719
980.0,0.16
981.0,0.2037
982.0,0.1903
983.0,0.1803
984.0,0.2155
985.0,0.1893
986.0,0.2229
987.0,0.2145
988.0,0.2144
989.0,0.2245
990.0,0.213
991.0,0.2247
992.0,0.2265
993.0,0.2174
994.0,0.2268
995.0,0.2272
996.0,0.2255
997.0,0.2262
998.0,0.2248
999.0,0.2242
1000.0,0.2217
1001.0,0.2255
1002.0,0.2153
1003.0,0.2213
1004.0,0.2148
1005.0,0.2084
1006.0,0.2158
1007.0,0.2208
1008.0,0.2189
1009.0,0.2169
1010.0,0.2156
1011.0,0.2197
1012.0,0.2171
1013.0,0.2195
1014.0,0.2179
1015.0,0.2163
1016.0,0.2153
1017.0,0.2157
1018.0,0.2154
1019.0,0.2092
1020.0,0.214
1021.0,0.214
1022.0,0.2117
1023.0,0.2139
1024.0,0.2095
1025.0,0.2143
1026.0,0.2129
1027.0,0.2125
1028.0,0.212
1029.0,0.2093
1030.0,0.2113
1031.0,0.2102
1032.0,0.2098
1033.0,0.2066
1034.0,0.2067
1035.0,0.2073
1036.0,0.2082
1037.0,0.2049
1038.0,0.2057
1039.0,0.2055
1040.0,0.2047
1041.0,0.2053
1042.0,0.2039
1043.0,0.2031
1044.0,0.2038
1045.0,0.2009
1046.0,0.1986
1047.0,0.2003
1048.0,0.2012
1049.0,0.2004
1050.0,0.1993
1051.0,0.1989
1052.0,0.1979
1053.0,0.1961
1054.0,0.1964
1055.0,0.1962
1056.0,0.1953
1057.0,0.1945
1058.0,0.1895
1059.0,0.1894
1060.0,0.189
1061.0,0.1886
1062.0,0.1893
1063.0,0.1873
1064.0,0.1896
1065.0,0.1876
1066.0,0.1844
1067.0,0.1866
1068.0,0.1821
1069.0,0.1768
1070.0,0.1824
1071.0,0.1866
1072.0,0.1835
1073.0,0.181
1074.0,0.1873
1075.0,0.1739
1076.0,0.1869
1077.0,0.1814
1078.0,0.1769
1079.0,0.1846
1080.0,0.1786
1081.0,0.1708
1082.0,0.177
1083.0,0.1785
1084.0,0.1697
1085.0,0.1793
1086.0,0.1585
1087.0,0.167
1088.0,0.1777
1089.0,0.1683
1090.0,0.1627
1091.0,0.1761
1092.0,0.1763
1093.0,0.1396
1094.0,0.1601
1095.0,0.1459
1096.0,0.137
1097.0,0.1723
1098.0,0.1333
1099.0,0.1405
1100.0,0.1269
1101.0,0.1299
1102.0,0.1213
1103.0,0.1182
1104.0,0.1187
1105.0,0.1365
1106.0,0.0892
1107.0,0.1268
1108.0,0.09847
1109.0,0.1001
1110.0,0.1237
1111.0,0.07204
1112.0,0.09994
1113.0,0.05243
1114.0,0.05905
1115.0,0.04807
1116.0,0.03276
1117.0,0.007482
1118.0,0.03692
1119.0,0.01399
1120.0,0.01697
1121.0,0.02467
1122.0,0.007214
1123.0,0.01551
1124.0,0.01302
1125.0,0.01807
1126.0,0.003448
1127.0,0.02067
1128.0,0.008955
1129.0,0.009802
1130.0,0.005885
1131.0,0.04939
1132.0,0.03665
1133.0,0.01787
1134.0,0.002587
1135.0,0.001101
1136.0,0.01321
1137.0,0.04635
1138.0,0.03162
1139.0,0.05981
1140.0,0.04505
1141.0,0.03021
1142.0,0.03696
1143.0,0.05815
1144.0,0.015
1145.0,0.0172
1146.0,0.0185
1147.0,0.003787
1148.0,0.0495
1149.0,0.03607
1150.0,0.01729
1151.0,0.03138
1152.0,0.04277
1153.0,0.04507
1154.0,0.01704
1155.0,0.06223
1156.0,0.05338
1157.0,0.0655
1158.0,0.06457
1159.0,0.07242
1160.0,0.05969
1161.0,0.081
1162.0,0.08059
1163.0,0.123
1164.0,0.1005
1165.0,0.08973
1166.0,0.09334
1167.0,0.1041
1168.0,0.1041
1169.0,0.1079
1170.0,0.1217
1171.0,0.1185
1172.0,0.1237
1173.0,0.1215
1174.0,0.077
1175.0,0.1214
1176.0,0.1396
1177.0,0.1298
1178.0,0.08997
1179.0,0.1407
1180.0,0.1191
1181.0,0.1231
1182.0,0.0764
1183.0,0.1225
1184.0,0.1119
1185.0,0.1053
1186.0,0.1339
1187.0,0.1246
1188.0,0.07609
1189.0,0.1157
1190.0,0.1315
1191.0,0.119
1192.0,0.1339
1193.0,0.1263
1194.0,0.1315
1195.0,0.1204
1196.0,0.1138
1197.0,0.1332
1198.0,0.1201
1199.0,0.09406
1200.0,0.1246
1201.0,0.1172
1202.0,0.1191
1203.0,0.1165
1204.0,0.09856
1205.0,0.1241
1206.0,0.141
1207.0,0.1176
1208.0,0.1182
1209.0,0.121
1210.0,0.128
1211.0,0.119
1212.0,0.113
1213.0,0.1342
1214.0,0.1174
1215.0,0.1147
1216.0,0.1342
1217.0,0.1292
1218.0,0.133
1219.0,0.1304
1220.0,0.1333
1221.0,0.1356
1222.0,0.1314
1223.0,0.1295
1224.0,0.127
1225.0,0.1344
1226.0,0.1366
1227.0,0.1217
1228.0,0.1382
1229.0,0.1366
1230.0,0.1335
1231.0,0.1401
1232.0,0.1392
1233.0,0.1306
1234.0,0.1408
1235.0,0.1394
1236.0,0.1408
1237.0,0.1373
1238.0,0.1404
1239.0,0.1385
1240.0,0.1393
1241.0,0.1376
1242.0,0.1382
1243.0,0.1371
1244.0,0.1378
1245.0,0.1386
1246.0,0.1378
1247.0,0.137
1248.0,0.1364
1249.0,0.1373
1250.0,0.1361
1251.0,0.1338
1252.0,0.1346
1253.0,0.1321
1254.0,0.1298
1255.0,0.1341
1256.0,0.1278
1257.0,0.1265
1258.0,0.1309
1259.0,0.1223
1260.0,0.1234
1261.0,0.1117
1262.0,0.1059
1263.0,0.106
1264.0,0.09246
1265.0,0.1054
1266.0,0.09821
1267.0,0.1022
1268.0,0.09338
1269.0,0.03915
1270.0,0.1009
1271.0,0.112
1272.0,0.1128
1273.0,0.1111
1274.0,0.1122
1275.0,0.1147
1276.0,0.1167
1277.0,0.1188
1278.0,0.1229
1279.0,0.1217
1280.0,0.1203
1281.0,0.1157
1282.0,0.1129
1283.0,0.1213
1284.0,0.124
1285.0,0.125
1286.0,0.1275
1287.0,0.124
1288.0,0.1245
1289.0,0.1176
1290.0,0.1235
1291.0,0.1258
1292.0,0.1128
1293.0,0.1221
1294.0,0.1211
1295.0,0.1186
1296.0,0.1101
1297.0,0.1018
1298.0,0.1147
1299.0,0.1228
1300.0,0.09574
1301.0,0.1001
1302.0,0.1144
1303.0,0.09527
1304.0,0.07402
1305.0,0.1117
1306.0,0.1109
1307.0,0.0783
1308.0,0.09671
1309.0,0.1087
1310.0,0.07612
1311.0,0.09099
1312.0,0.08754
1313.0,0.08403
1314.0,0.07258
1315.0,0.07006
1316.0,0.08813
1317.0,0.08242
1318.0,0.09274
1319.0,0.06389
1320.0,0.06355
1321.0,0.0771
1322.0,0.07622
1323.0,0.05056
1324.0,0.06303
1325.0,0.08589
1326.0,0.06948
1327.0,0.06502
1328.0,0.05367
1329.0,0.03458
1330.0,0.04807
1331.0,0.02318
1332.0,0.02555
1333.0,0.03663
1334.0,0.035
1335.0,0.04975
1336.0,0.03587
1337.0,0.03088
1338.0,0.03299
1339.0,0.03362
1340.0,0.03446
1341.0,0.02946
1342.0,0.03151
1343.0,0.01523
1344.0,0.009717
1345.0,0.01354
1346.0,0.004032
1347.0,0.003681
1348.0,8.516e-05
1349.0,0.0003852
1350.0,0.0004692
1351.0,4.422e-05
1352.0,3.658e-06
1353.0,1.007e-07
1354.0,5.795e-07
1355.0,1.633e-09
1356.0,4.869e-08
1357.0,7.336e-08
1358.0,1.955e-09
1359.0,2.079e-10
1360.0,8.074e-10
1361.0,8.213e-13
1362.0,2.244e-15
1363.0,1.018e-09
1364.0,4.259e-10
1365.0,7.832e-16
1366.0,4.514e-09
1367.0,1.966e-09
1368.0,6.047e-18
1369.0,1.571e-10
1370.0,7.525e-11
1371.0,4.22e-12
1372.0,1.081e-09
1373.0,2.824e-08
1374.0,1.938e-07
1375.0,2.999e-07
1376.0,5.389e-07
1377.0,2.226e-07
1378.0,2.298e-06
1379.0,9.757e-08
1380.0,8.886e-08
1381.0,2.035e-09
1382.0,9.21e-10
1383.0,1.333e-11
1384.0,1.677e-10
1385.0,1.051e-09
1386.0,7.709e-10
1387.0,1.342e-07
1388.0,3.484e-09
1389.0,8.319e-07
1390.0,6.522e-07
1391.0,4.29e-07
1392.0,2.802e-08
1393.0,1.924e-07
1394.0,4.203e-08
1395.0,2.691e-10
1396.0,1.071e-12
1397.0,6.154e-08
1398.0,2.244e-06
1399.0,1.522e-06
1400.0,4.568e-13
1401.0,1.903e-12
1402.0,1.541e-05
1403.0,1.435e-05
1404.0,3.718e-06
1405.0,1.155e-10
1406.0,6.065e-06
1407.0,1.047e-06
1408.0,5.465e-06
1409.0,1.005e-06
1410.0,1.495e-06
1411.0,1.347e-05
1412.0,2.575e-05
1413.0,0.0005903
1414.0,1.321e-06
1415.0,4.887e-07
1416.0,0.001989
1417.0,0.0003606
1418.0,0.0002955
1419.0,4.079e-05
1420.0,0.0001775
1421.0,0.0002473
1422.0,0.002592
1423.0,0.000459
1424.0,0.0009943
1425.0,0.001206
1426.0,0.001862
1427.0,0.004363
1428.0,6.998e-05
