interpolation:linear
wavelength,value
280.0,1.118e-20
280.5,3.343e-19
281.0,1.738e-18
281.5,4.465e-19
282.0,1.515e-18
282.5,4.067e-18
283.0,1.321e-17
283.5,2.163e-17
284.0,3.433e-16
284.5,9.773e-16
285.0,1.869e-15
285.5,1.004e-14
286.0,4.112e-14
286.5,1.864e-13
287.0,5.339e-13
287.5,2.034e-12
288.0,5.427e-12
288.5,1.979e-11
289.0,6.087e-11
289.5,2.078e-10
290.0,6.277e-10
290.5,1.366e-09
291.0,3.146e-09
291.5,9.862e-09
292.0,2.437e-08
292.5,3.863e-08
293.0,9.718e-08
293.5,2.969e-07
294.0,5.506e-07
294.5,7.383e-07
295.0,1.484e-06
295.5,4.037e-06
296.0,7.967e-06
296.5,1.14e-05
297.0,1.573e-05
297.5,4.343e-05
298.0,7.017e-05
298.5,7.201e-05
299.0,0.000162
299.5,0.0002782
300.0,0.0003125
300.5,0.0004631
301.0,0.0008717
301.5,0.001449
302.0,0.001272
302.5,0.002453
303.0,0.004326
303.5,0.005381
304.0,0.005009
304.5,0.00729
305.0,0.01066
305.5,0.01194
306.0,0.01145
306.5,0.01405
307.0,0.02018
307.5,0.02599
308.0,0.02731
308.5,0.03175
309.0,0.03095
309.5,0.03464
310.0,0.03445
310.5,0.05551
311.0,0.06909
311.5,0.06645
312.0,0.06521
312.5,0.07836
313.0,0.08443
313.5,0.0825
314.0,0.1016
314.5,0.08824
315.0,0.1155
315.5,0.09763
316.0,0.08385
316.5,0.1187
317.0,0.1474
317.5,0.154
318.0,0.119
318.5,0.1449
319.0,0.1703
319.5,0.141
320.0,0.1708
320.5,0.2095
321.0,0.1832
321.5,0.1754
322.0,0.1906
322.5,0.1656
323.0,0.1629
323.5,0.1978
324.0,0.2305
324.5,0.2352
325.0,0.2046
325.5,0.2604
326.0,0.3175
326.5,0.3157
327.0,0.3155
327.5,0.3057
328.0,0.2747
328.5,0.2856
329.0,0.3389
329.5,0.3836
330.0,0.3879
330.5,0.3126
331.0,0.3193
331.5,0.3228
332.0,0.3462
332.5,0.3413
333.0,0.341
333.5,0.3103
334.0,0.3182
334.5,0.3649
335.0,0.3417
335.5,0.3991
336.0,0.2762
336.5,0.324
337.0,0.2665
337.5,0.3318
338.0,0.3224
338.5,0.372
339.0,0.3682
339.5,0.3542
340.0,0.4164
340.5,0.3751
341.0,0.3659
341.5,0.3359
342.0,0.4014
342.5,0.3756
343.0,0.4131
343.5,0.3891
344.0,0.2875
344.5,0.2905
345.0,0.3844
345.5,0.3924
346.0,0.3335
346.5,0.3776
347.0,0.4055
347.5,0.3279
348.0,0.3737
348.5,0.3736
349.0,0.3466
349.5,0.3432
350.0,0.4245
350.5,0.4478
351.0,0.4001
351.5,0.3889
352.0,0.4177
352.5,0.326
353.0,0.4106
353.5,0.439
354.0,0.4558
354.5,0.4623
355.0,0.4608
355.5,0.4163
356.0,0.4356
356.5,0.372
357.0,0.3074
357.5,0.3763
358.0,0.2983
358.5,0.2549
359.0,0.3566
359.5,0.4545
360.0,0.4818
360.5,0.3851
361.0,0.3511
361.5,0.4043
362.0,0.3497
362.5,0.484
363.0,0.4347
363.5,0.4005
364.0,0.4898
364.5,0.4187
365.0,0.4265
365.5,0.5353
366.0,0.5672
366.5,0.533
367.0,0.5191
367.5,0.5388
368.0,0.4716
368.5,0.4759
369.0,0.514
369.5,0.5479
370.0,0.5841
370.5,0.4534
371.0,0.4845
371.5,0.6062
372.0,0.4024
372.5,0.4826
373.0,0.4909
373.5,0.3195
374.0,0.4642
374.5,0.3845
375.0,0.3738
375.5,0.5582
376.0,0.4627
376.5,0.4796
377.0,0.5078
377.5,0.5942
378.0,0.6442
378.5,0.6089
379.0,0.5026
379.5,0.4591
380.0,0.4774
380.5,0.5783
381.0,0.5796
381.5,0.4595
382.0,0.4081
382.5,0.348
383.0,0.3222
383.5,0.3103
384.0,0.3424
384.5,0.5037
385.0,0.4995
385.5,0.4653
386.0,0.3985
386.5,0.5236
387.0,0.4351
387.5,0.4888
388.0,0.4513
388.5,0.4462
389.0,0.4817
389.5,0.5835
390.0,0.5857
390.5,0.539
391.0,0.6346
391.5,0.6473
392.0,0.5453
392.5,0.4882
393.0,0.2717
393.5,0.1975
394.0,0.402
394.5,0.5111
395.0,0.6238
395.5,0.6337
396.0,0.5495
396.5,0.3213
397.0,0.2411
397.5,0.4904
398.0,0.6868
398.5,0.71
399.0,0.7689
399.5,0.7665
400.0,0.796
401.0,0.808
402.0,0.8526
403.0,0.81
404.0,0.7977
405.0,0.7977
406.0,0.7849
407.0,0.7723
408.0,0.8026
409.0,0.8591
410.0,0.7508
411.0,0.8134
412.0,0.8737
413.0,0.8521
414.0,0.8627
415.0,0.8651
416.0,0.8803
417.0,0.8587
418.0,0.843
419.0,0.8541
420.0,0.8505
421.0,0.8898
422.0,0.8458
423.0,0.8263
424.0,0.8741
425.0,0.8725
426.0,0.85
427.0,0.8342
428.0,0.8126
429.0,0.7698
430.0,0.6737
431.0,0.6678
432.0,0.8623
433.0,0.8671
434.0,0.8052
435.0,0.841
436.0,0.9477
437.0,0.9349
438.0,0.8514
439.0,0.8807
440.0,0.9088
441.0,0.9417
442.0,1.01
443.0,0.9839
444.0,1.005
445.0,0.9835
446.0,0.9386
447.0,1.015
448.0,1.031
449.0,1.035
450.0,1.064
451.0,1.103
452.0,1.063
453.0,0.9996
454.0,1.043
455.0,1.05
456.0,1.075
457.0,1.093
458.0,1.056
459.0,1.05
460.0,1.053
461.0,1.077
462.0,1.086
463.0,1.078
464.0,1.06
465.0,1.047
466.0,1.057
467.0,1.038
468.0,1.05
469.0,1.055
470.0,1.022
471.0,1.02
472.0,1.075
473.0,1.061
474.0,1.063
475.0,1.072
476.0,1.04
477.0,1.043
478.0,1.072
479.0,1.066
480.0,1.068
481.0,1.087
482.0,1.093
483.0,1.08
484.0,1.057
485.0,1.007
486.0,0.8805
487.0,0.9227
488.0,1.012
489.0,1.016
490.0,1.068
491.0,1.05
492.0,0.9915
493.0,1.024
494.0,1.034
495.0,1.043
496.0,1.049
497.0,1.066
498.0,1.016
499.0,1.029
500.0,0.999
501.0,0.9808
502.0,0.9672
503.0,1.007
504.0,0.9818
505.0,1.016
506.0,1.049
507.0,0.9984
508.0,0.9672
509.0,0.9942
510.0,0.9888
511.0,1.015
512.0,1.026
513.0,0.9712
514.0,0.9645
515.0,0.9549
516.0,0.9526
517.0,0.8464
518.0,0.8899
519.0,0.9334
520.0,0.9674
521.0,0.9766
522.0,0.9775
523.0,0.9599
524.0,0.9944
525.0,1.006
526.0,0.9613
527.0,0.9059
528.0,0.9582
529.0,1.01
530.0,0.9956
531.0,1.01
532.0,0.9757
533.0,0.9471
534.0,0.9751
535.0,0.9963
536.0,1.005
537.0,0.9657
538.0,0.9827
539.0,0.9745
540.0,0.9343
541.0,0.9407
542.0,0.9702
543.0,0.9599
544.0,0.9766
545.0,0.9736
546.0,0.978
547.0,0.9774
548.0,0.9657
549.0,0.9686
550.0,0.9801
551.0,0.9682
552.0,0.9749
553.0,0.9575
554.0,0.9804
555.0,0.9824
556.0,0.9696
557.0,0.9396
558.0,0.9326
559.0,0.9152
560.0,0.9267
561.0,0.9388
562.0,0.9321
563.0,0.9577
564.0,0.9316
565.0,0.9237
566.0,0.9102
567.0,0.9275
568.0,0.9195
569.0,0.8981
570.0,0.8978
571.0,0.8923
572.0,0.914
573.0,0.9239
574.0,0.921
575.0,0.9039
576.0,0.8956
577.0,0.9053
578.0,0.8916
579.0,0.8949
580.0,0.9116
581.0,0.9161
582.0,0.9332
583.0,0.9353
584.0,0.9433
585.0,0.9202
586.0,0.9013
587.0,0.9211
588.0,0.8993
589.0,0.7979
590.0,0.8344
591.0,0.8822
592.0,0.8715
593.0,0.8839
594.0,0.878
595.0,0.8567
596.0,0.8895
597.0,0.8801
598.0,0.8776
599.0,0.8782
600.0,0.8793
601.0,0.8719
602.0,0.866
603.0,0.8802
604.0,0.8948
605.0,0.8901
606.0,0.8863
607.0,0.895
608.0,0.885
609.0,0.8865
610.0,0.88
611.0,0.8846
612.0,0.8819
613.0,0.8708
614.0,0.8588
615.0,0.8774
616.0,0.8485
617.0,0.8467
618.0,0.8793
619.0,0.8703
620.0,0.8758
621.0,0.8767
622.0,0.8666
623.0,0.8534
624.0,0.8387
625.0,0.8369
626.0,0.8493
627.0,0.859
628.0,0.8045
629.0,0.8395
630.0,0.8202
631.0,0.8379
632.0,0.8277
633.0,0.8526
634.0,0.844
635.0,0.857
636.0,0.8455
637.0,0.8593
638.0,0.8674
639.0,0.8576
640.0,0.8491
641.0,0.8485
642.0,0.8446
643.0,0.8559
644.0,0.8531
645.0,0.8545
646.0,0.8348
647.0,0.8256
648.0,0.8264
649.0,0.8104
650.0,0.8135
651.0,0.8486
652.0,0.8142
653.0,0.8374
654.0,0.828
655.0,0.7976
656.0,0.7066
657.0,0.7255
658.0,0.8128
659.0,0.8186
660.0,0.8219
661.0,0.8277
662.0,0.8295
663.0,0.8131
664.0,0.8225
665.0,0.8229
666.0,0.8235
667.0,0.8226
668.0,0.8229
669.0,0.8356
670.0,0.8319
671.0,0.8317
672.0,0.8246
673.0,0.8369
674.0,0.8338
675.0,0.8262
676.0,0.8318
677.0,0.8235
678.0,0.8258
679.0,0.8125
680.0,0.8189
681.0,0.8135
682.0,0.8125
683.0,0.8109
684.0,0.8069
685.0,0.8138
686.0,0.809
687.0,0.5471
688.0,0.6364
689.0,0.6386
690.0,0.6682
691.0,0.7014
692.0,0.7255
693.0,0.7198
694.0,0.7137
695.0,0.7421
696.0,0.7431
697.0,0.7871
698.0,0.7748
699.0,0.7573
700.0,0.7482
701.0,0.7409
702.0,0.7457
703.0,0.747
704.0,0.7703
705.0,0.7715
706.0,0.7706
707.0,0.7711
708.0,0.7727
709.0,0.7735
710.0,0.7736
711.0,0.7725
712.0,0.77
713.0,0.7624
714.0,0.7652
715.0,0.7414
716.0,0.742
717.0,0.6472
718.0,0.595
719.0,0.5454
720.0,0.5716
721.0,0.6287
722.0,0.7169
723.0,0.6686
724.0,0.6038
725.0,0.5947
726.0,0.6223
727.0,0.6303
728.0,0.5933
729.0,0.6142
730.0,0.65
731.0,0.6223
732.0,0.6642
733.0,0.7018
734.0,0.7181
735.0,0.7034
736.0,0.7025
737.0,0.7053
738.0,0.7153
739.0,0.7012
740.0,0.7192
741.0,0.7119
742.0,0.7124
743.0,0.7305
744.0,0.7283
745.0,0.7284
746.0,0.7317
747.0,0.7333
748.0,0.7318
749.0,0.7234
750.0,0.723
751.0,0.7157
752.0,0.7187
753.0,0.7223
754.0,0.724
755.0,0.7199
756.0,0.7196
757.0,0.7206
758.0,0.7117
759.0,0.6977
760.0,0.1245
761.0,0.06688
762.0,0.3659
763.0,0.1874
764.0,0.2778
765.0,0.3659
766.0,0.4453
767.0,0.5578
768.0,0.6406
769.0,0.6533
770.0,0.6747
771.0,0.6798
772.0,0.6812
773.0,0.6859
774.0,0.6825
775.0,0.6773
776.0,0.6856
777.0,0.6765
778.0,0.6724
779.0,0.673
780.0,0.6692
781.0,0.6699
782.0,0.6741
783.0,0.6623
784.0,0.6655
785.0,0.6606
786.0,0.6679
787.0,0.6566
788.0,0.6486
789.0,0.6484
790.0,0.6316
791.0,0.6366
792.0,0.6319
793.0,0.6217
794.0,0.6318
795.0,0.6426
796.0,0.6236
797.0,0.6244
798.0,0.6419
799.0,0.6379
800.0,0.627
801.0,0.6252
802.0,0.6234
803.0,0.6188
804.0,0.6195
805.0,0.6174
806.0,0.6344
807.0,0.6268
808.0,0.6274
809.0,0.6158
810.0,0.611
811.0,0.6121
812.0,0.595
813.0,0.5829
814.0,0.5144
815.0,0.5112
816.0,0.476
817.0,0.4845
818.0,0.4667
819.0,0.5205
820.0,0.4907
821.0,0.5717
822.0,0.5557
823.0,0.3807
824.0,0.5401
825.0,0.5619
826.0,0.5411
827.0,0.5705
828.0,0.4852
829.0,0.5377
830.0,0.5308
831.0,0.5326
832.0,0.5166
833.0,0.5488
834.0,0.5299
835.0,0.581
836.0,0.5568
837.0,0.5826
838.0,0.5648
839.0,0.5738
840.0,0.5863
841.0,0.5781
842.0,0.5791
843.0,0.5786
844.0,0.5707
845.0,0.5898
846.0,0.5872
847.0,0.5762
848.0,0.5727
849.0,0.5564
850.0,0.5331
851.0,0.5645
852.0,0.5605
853.0,0.5395
854.0,0.4658
855.0,0.5117
856.0,0.5593
857.0,0.5717
858.0,0.5675
859.0,0.568
860.0,0.569
861.0,0.5658
862.0,0.5747
863.0,0.5883
864.0,0.5589
865.0,0.554
866.0,0.4981
867.0,0.5198
868.0,0.5657
869.0,0.5539
870.0,0.5697
871.0,0.562
872.0,0.56
873.0,0.5589
874.0,0.5522
875.0,0.541
876.0,0.5467
877.0,0.5522
878.0,0.5582
879.0,0.5496
880.0,0.5378
881.0,0.5298
882.0,0.5412
883.0,0.5429
884.0,0.5404
885.0,0.5445
886.0,0.519
887.0,0.5245
888.0,0.5322
889.0,0.5383
890.0,0.5338
891.0,0.5329
892.0,0.5175
893.0,0.5014
894.0,0.4839
895.0,0.4575
896.0,0.431
897.0,0.3705
898.0,0.4042
899.0,0.3077
900.0,0.4137
901.0,0.3225
902.0,0.3781
903.0,0.382
904.0,0.4803
905.0,0.4639
906.0,0.4341
907.0,0.3531
908.0,0.36
909.0,0.3898
910.0,0.345
911.0,0.3676
912.0,0.3842
913.0,0.3501
914.0,0.3471
915.0,0.3763
916.0,0.3185
917.0,0.4041
918.0,0.3266
919.0,0.4114
920.0,0.4155
921.0,0.4321
922.0,0.3864
923.0,0.4174
924.0,0.396
925.0,0.3874
926.0,0.3916
927.0,0.4384
928.0,0.3217
929.0,0.2936
930.0,0.2306
931.0,0.2185
932.0,0.1571
933.0,0.1275
934.0,0.06961
935.0,0.1306
936.0,0.08136
937.0,0.08242
938.0,0.1015
939.0,0.2117
940.0,0.2548
941.0,0.192
942.0,0.2226
943.0,0.1461
944.0,0.1541
945.0,0.1981
946.0,0.1004
947.0,0.1989
948.0,0.146
949.0,0.2666
950.0,0.07343
951.0,0.2626
952.0,0.1405
953.0,0.1819
954.0,0.2234
955.0,0.184
956.0,0.1789
957.0,0.1407
958.0,0.2541
959.0,0.2013
960.0,0.2257
961.0,0.2537
962.0,0.24
963.0,0.277
964.0,0.2536
965.0,0.276
966.0,0.2759
967.0,0.2747
968.0,0.3696
969.0,0.3859
970.0,0.3543
971.0,0.4061
972.0,0.3883
973.0,0.3376
974.0,0.3203
975.0,0.3327
976.0,0.3156
977.0,0.3598
978.0,0.3415
979.0,0.3579
980.0,0.3364
981.0,0.4037
982.0,0.3858
983.0,0.3703
984.0,0.4162
985.0,0.3844
986.0,0.4237
987.0,0.4152
988.0,0.4145
989.0,0.4225
990.0,0.412
991.0,0.4237
992.0,0.4262
993.0,0.4165
994.0,0.4261
995.0,0.4256
996.0,0.4236
997.0,0.4243
998.0,0.4223
999.0,0.4207
1000.0,0.4177
1001.0,0.423
1002.0,0.4112
1003.0,0.4155
1004.0,0.4053
1005.0,0.3905
1006.0,0.4057
1007.0,0.4144
1008.0,0.4121
1009.0,0.4098
1010.0,0.4081
1011.0,0.4123
1012.0,0.4087
1013.0,0.4113
1014.0,0.4084
1015.0,0.4057
1016.0,0.4039
1017.0,0.4049
1018.0,0.4034
1019.0,0.3947
1020.0,0.4012
1021.0,0.4007
1022.0,0.3976
1023.0,0.4018
1024.0,0.3965
1025.0,0.4015
1026.0,0.3998
1027.0,0.3989
1028.0,0.398
1029.0,0.3933
1030.0,0.396
1031.0,0.3944
1032.0,0.3933
1033.0,0.3874
1034.0,0.3874
1035.0,0.3886
1036.0,0.3906
1037.0,0.3843
1038.0,0.3859
1039.0,0.3857
1040.0,0.3842
1041.0,0.3857
1042.0,0.383
1043.0,0.3818
1044.0,0.3831
1045.0,0.3779
1046.0,0.3737
1047.0,0.3771
1048.0,0.3792
1049.0,0.3778
1050.0,0.376
1051.0,0.3755
1052.0,0.374
1053.0,0.371
1054.0,0.3718
1055.0,0.372
1056.0,0.3707
1057.0,0.3695
1058.0,0.3604
1059.0,0.3608
1060.0,0.3602
1061.0,0.3598
1062.0,0.3617
1063.0,0.3581
1064.0,0.3623
1065.0,0.3597
1066.0,0.3526
1067.0,0.3571
1068.0,0.3493
1069.0,0.3385
1070.0,0.35
1071.0,0.3555
1072.0,0.3514
1073.0,0.3463
1074.0,0.3554
1075.0,0.3373
1076.0,0.355
1077.0,0.3486
1078.0,0.3419
1079.0,0.3494
1080.0,0.3432
1081.0,0.3321
1082.0,0.3376
1083.0,0.3387
1084.0,0.3312
1085.0,0.344
1086.0,0.3136
1087.0,0.3239
1088.0,0.3383
1089.0,0.3277
1090.0,0.3204
1091.0,0.3371
1092.0,0.3363
1093.0,0.2846
1094.0,0.3077
1095.0,0.2966
1096.0,0.2838
1097.0,0.3285
1098.0,0.2793
1099.0,0.2915
1100.0,0.2707
1101.0,0.2742
1102.0,0.2617
1103.0,0.2591
1104.0,0.2594
1105.0,0.2848
1106.0,0.2169
1107.0,0.2703
1108.0,0.2286
1109.0,0.2291
1110.0,0.2678
1111.0,0.1809
1112.0,0.2274
1113.0,0.1439
1114.0,0.161
1115.0,0.1334
1116.0,0.106
1117.0,0.03834
1118.0,0.1155
1119.0,0.05683
1120.0,0.0715
1121.0,0.0952
1122.0,0.03963
1123.0,0.06463
1124.0,0.05455
1125.0,0.07128
1126.0,0.02437
1127.0,0.08045
1128.0,0.04765
1129.0,0.05063
1130.0,0.03312
1131.0,0.1537
1132.0,0.1204
1133.0,0.07566
1134.0,0.01897
1135.0,0.007128
1136.0,0.06289
1137.0,0.1508
1138.0,0.1061
1139.0,0.1594
1140.0,0.1328
1141.0,0.1008
1142.0,0.1163
1143.0,0.1656
1144.0,0.05725
1145.0,0.07299
1146.0,0.07871
1147.0,0.02722
1148.0,0.1433
1149.0,0.114
1150.0,0.06163
1151.0,0.1053
1152.0,0.13
1153.0,0.127
1154.0,0.07067
1155.0,0.1663
1156.0,0.1495
1157.0,0.1681
1158.0,0.1663
1159.0,0.1796
1160.0,0.1532
1161.0,0.1892
1162.0,0.1902
1163.0,0.2573
1164.0,0.2205
1165.0,0.2079
1166.0,0.2066
1167.0,0.2251
1168.0,0.2275
1169.0,0.233
1170.0,0.2532
1171.0,0.2469
1172.0,0.2514
1173.0,0.2527
1174.0,0.1805
1175.0,0.2468
1176.0,0.2713
1177.0,0.2605
1178.0,0.1957
1179.0,0.2735
1180.0,0.2442
1181.0,0.252
1182.0,0.1741
1183.0,0.2481
1184.0,0.2326
1185.0,0.2245
1186.0,0.2659
1187.0,0.2534
1188.0,0.177
1189.0,0.2361
1190.0,0.2599
1191.0,0.2469
1192.0,0.2635
1193.0,0.2526
1194.0,0.2603
1195.0,0.2463
1196.0,0.2373
1197.0,0.2603
1198.0,0.2383
1199.0,0.203
1200.0,0.2494
1201.0,0.2407
1202.0,0.2392
1203.0,0.2372
1204.0,0.2076
1205.0,0.2446
1206.0,0.27
1207.0,0.2386
1208.0,0.2347
1209.0,0.2395
1210.0,0.2494
1211.0,0.2377
1212.0,0.2351
1213.0,0.2612
1214.0,0.2406
1215.0,0.2361
1216.0,0.2604
1217.0,0.2536
1218.0,0.2583
1219.0,0.2551
1220.0,0.2585
1221.0,0.261
1222.0,0.2543
1223.0,0.252
1224.0,0.2505
1225.0,0.2594
1226.0,0.2611
1227.0,0.2411
1228.0,0.2623
1229.0,0.2611
1230.0,0.2567
1231.0,0.2638
1232.0,0.2622
1233.0,0.2535
1234.0,0.2635
1235.0,0.2619
1236.0,0.2638
1237.0,0.2602
1238.0,0.2629
1239.0,0.2595
1240.0,0.2605
1241.0,0.2593
1242.0,0.2587
1243.0,0.2566
1244.0,0.2584
1245.0,0.2595
1246.0,0.258
1247.0,0.257
1248.0,0.2569
1249.0,0.2577
1250.0,0.2561
1251.0,0.2529
1252.0,0.2529
1253.0,0.2509
1254.0,0.2485
1255.0,0.2526
1256.0,0.2457
1257.0,0.2444
1258.0,0.2488
1259.0,0.24
1260.0,0.2412
1261.0,0.228
1262.0,0.2213
1263.0,0.2217
1264.0,0.2049
1265.0,0.2203
1266.0,0.2121
1267.0,0.2157
1268.0,0.2048
1269.0,0.1283
1270.0,0.215
1271.0,0.2272
1272.0,0.2279
1273.0,0.2255
1274.0,0.2262
1275.0,0.2294
1276.0,0.2316
1277.0,0.2331
1278.0,0.2374
1279.0,0.2353
1280.0,0.2323
1281.0,0.2216
1282.0,0.2135
1283.0,0.2299
1284.0,0.2354
1285.0,0.237
1286.0,0.2401
1287.0,0.2365
1288.0,0.2364
1289.0,0.2291
1290.0,0.2343
1291.0,0.2376
1292.0,0.2235
1293.0,0.233
1294.0,0.2314
1295.0,0.2303
1296.0,0.2201
1297.0,0.2084
1298.0,0.224
1299.0,0.2333
1300.0,0.198
1301.0,0.204
1302.0,0.2232
1303.0,0.1953
1304.0,0.167
1305.0,0.2187
1306.0,0.2187
1307.0,0.1705
1308.0,0.1955
1309.0,0.2171
1310.0,0.1672
1311.0,0.1876
1312.0,0.1825
1313.0,0.1791
1314.0,0.1604
1315.0,0.1584
1316.0,0.1847
1317.0,0.175
1318.0,0.19
1319.0,0.1489
1320.0,0.1442
1321.0,0.1678
1322.0,0.1696
1323.0,0.1279
1324.0,0.1461
1325.0,0.182
1326.0,0.1564
1327.0,0.1492
1328.0,0.1287
1329.0,0.09682
1330.0,0.126
1331.0,0.07612
1332.0,0.07859
1333.0,0.1094
1334.0,0.0926
1335.0,0.1274
1336.0,0.1008
1337.0,0.0891
1338.0,0.09643
1339.0,0.09599
1340.0,0.09336
1341.0,0.09117
1342.0,0.09577
1343.0,0.06482
1344.0,0.03882
1345.0,0.05599
1346.0,0.02776
1347.0,0.02822
1348.0,0.001834
1349.0,0.006589
1350.0,0.006843
1351.0,0.001667
1352.0,0.0004521
1353.0,2.321e-05
1354.0,7.97e-05
1355.0,6.511e-07
1356.0,1.134e-05
1357.0,1.728e-05
1358.0,7.709e-07
1359.0,9.825e-08
1360.0,3.541e-07
1361.0,4.047e-10
1362.0,1.119e-12
1363.0,4.816e-07
1364.0,1.995e-07
1365.0,3.981e-13
1366.0,2.101e-06
1367.0,8.587e-07
1368.0,3.163e-15
1369.0,7.463e-08
1370.0,3.7e-08
1371.0,2.113e-09
1372.0,4.725e-07
1373.0,9.492e-06
1374.0,4.397e-05
1375.0,8e-05
1376.0,7.171e-05
1377.0,3.288e-05
1378.0,0.0003218
1379.0,1.382e-05
1380.0,1.997e-05
1381.0,5.229e-07
1382.0,4.268e-07
1383.0,6.42e-09
1384.0,8.459e-08
1385.0,4.019e-07
1386.0,3.816e-07
1387.0,4.578e-05
1388.0,9.032e-07
1389.0,0.0001548
1390.0,0.0001332
1391.0,8.893e-05
1392.0,5.789e-06
1393.0,3.069e-05
1394.0,1.597e-05
1395.0,1.179e-07
1396.0,5.817e-10
1397.0,1.224e-05
1398.0,0.0003618
1399.0,0.0002295
1400.0,2.528e-10
1401.0,1.045e-09
1402.0,0.0006376
1403.0,0.0008018
1404.0,0.0002444
1405.0,5.762e-08
1406.0,0.0006364
1407.0,5.617e-05
1408.0,0.0005206
1409.0,0.0001746
1410.0,0.0001399
1411.0,0.0007051
1412.0,0.0009525
1413.0,0.009898
1414.0,0.0001104
1415.0,5.295e-05
1416.0,0.01645
1417.0,0.004886
1418.0,0.00555
1419.0,0.0008572
1420.0,0.003393
1421.0,0.00367
1422.0,0.0215
1423.0,0.004139
1424.0,0.007788
1425.0,0.01141
1426.0,0.01308
1427.0,0.02437
1428.0,0.001722
1429.0,0.01807
1430.0,0.03121
1431.0,0.0344
1432.0,0.001354
1433.0,0.02172
1434.0,0.01096
1435.0,0.01068
1436.0,0.02105
1437.0,0.01614
1438.0,0.00669
1439.0,0.02883
1440.0,0.02158
1441.0,0.0162
1442.0,0.018
1443.0,0.023
1444.0,0.03209
