interpolation:linear
wavelength,value
280.0,5.4740000000000004e-21
280.5,1.682e-19
281.0,8.816e-19
281.5,5.159e-19
282.0,1.373e-18
282.5,3.543e-18
283.0,1.13e-17
283.5,1.84e-17
284.0,2.919e-16
284.5,8.341e-16
285.0,1.745e-15
285.5,8.824e-15
286.0,3.56e-14
286.5,1.585e-13
287.0,4.499e-13
287.5,1.703e-12
288.0,4.41e-12
288.5,1.523e-11
289.0,4.459e-11
289.5,1.45e-10
290.0,4.221e-10
290.5,8.908e-10
291.0,1.98e-09
291.5,5.904e-09
292.0,1.439e-08
292.5,2.225e-08
293.0,5.411e-08
293.5,1.571e-07
294.0,2.796e-07
294.5,3.655e-07
295.0,7.05e-07
295.5,1.924e-06
296.0,3.844e-06
296.5,5.58e-06
297.0,7.799e-06
297.5,2.2e-05
298.0,3.629e-05
298.5,3.788e-05
299.0,8.67e-05
299.5,0.000154
300.0,0.0001765
300.5,0.0002674
301.0,0.0005239
301.5,0.0009099
302.0,0.0008199
302.5,0.001601
303.0,0.00287
303.5,0.003609
304.0,0.003385
304.5,0.005024
305.0,0.007551
305.5,0.008595
306.0,0.0083
306.5,0.01029
307.0,0.01512
307.5,0.01989
308.0,0.02098
308.5,0.02465
309.0,0.02416
309.5,0.02741
310.0,0.02744
310.5,0.04436
311.0,0.0555
311.5,0.05351
312.0,0.05311
312.5,0.06431
313.0,0.06958
313.5,0.06774
314.0,0.08418
314.5,0.07402
315.0,0.09714
315.5,0.08161
316.0,0.07079
316.5,0.101
317.0,0.1255
317.5,0.1308
318.0,0.1016
318.5,0.1251
319.0,0.1479
319.5,0.1214
320.0,0.1469
320.5,0.1822
321.0,0.1609
321.5,0.1542
322.0,0.1658
322.5,0.1442
323.0,0.1428
323.5,0.1746
324.0,0.2036
324.5,0.2072
325.0,0.1796
325.5,0.2299
326.0,0.2808
326.5,0.2803
327.0,0.2797
327.5,0.2706
328.0,0.2421
328.5,0.2531
329.0,0.3017
329.5,0.3421
330.0,0.3455
330.5,0.2775
331.0,0.2831
331.5,0.2871
332.0,0.309
332.5,0.3052
333.0,0.3046
333.5,0.2765
334.0,0.2835
334.5,0.3261
335.0,0.3059
335.5,0.3573
336.0,0.2473
336.5,0.2899
337.0,0.2382
337.5,0.2964
338.0,0.2887
338.5,0.3332
339.0,0.3299
339.5,0.3174
340.0,0.3731
340.5,0.3363
341.0,0.328
341.5,0.3012
342.0,0.36
342.5,0.3368
343.0,0.3705
343.5,0.3489
344.0,0.2579
344.5,0.2606
345.0,0.3448
345.5,0.3521
346.0,0.2993
346.5,0.339
347.0,0.364
347.5,0.2943
348.0,0.3356
348.5,0.3355
349.0,0.3113
349.5,0.3083
350.0,0.3814
350.5,0.4023
351.0,0.3595
351.5,0.3494
352.0,0.3754
352.5,0.293
353.0,0.3691
353.5,0.3947
354.0,0.4098
354.5,0.4157
355.0,0.4144
355.5,0.3744
356.0,0.3918
356.5,0.3346
357.0,0.2765
357.5,0.3386
358.0,0.2684
358.5,0.2294
359.0,0.3209
359.5,0.409
360.0,0.4336
360.5,0.3466
361.0,0.3161
361.5,0.364
362.0,0.3149
362.5,0.4359
363.0,0.3916
363.5,0.3608
364.0,0.4413
364.5,0.3773
365.0,0.3843
365.5,0.4825
366.0,0.5113
366.5,0.4805
367.0,0.4681
367.5,0.4858
368.0,0.4252
368.5,0.4292
369.0,0.4636
369.5,0.4942
370.0,0.5269
370.5,0.4091
371.0,0.4372
371.5,0.5471
372.0,0.3632
372.5,0.4355
373.0,0.4431
373.5,0.2884
374.0,0.4191
374.5,0.3472
375.0,0.3375
375.5,0.504
376.0,0.4179
376.5,0.4331
377.0,0.4587
377.5,0.5367
378.0,0.5819
378.5,0.5501
379.0,0.454
379.5,0.4148
380.0,0.4313
380.5,0.5226
381.0,0.5238
381.5,0.4153
382.0,0.3689
382.5,0.3146
383.0,0.2913
383.5,0.2806
384.0,0.3096
384.5,0.4555
385.0,0.4518
385.5,0.4209
386.0,0.3606
386.5,0.4737
387.0,0.3937
387.5,0.4423
388.0,0.4084
388.5,0.4038
389.0,0.436
389.5,0.5282
390.0,0.5302
390.5,0.488
391.0,0.5746
391.5,0.5862
392.0,0.4938
392.5,0.4422
393.0,0.2461
393.5,0.1789
394.0,0.3641
394.5,0.4631
395.0,0.5652
395.5,0.5742
396.0,0.4979
396.5,0.2911
397.0,0.2185
397.5,0.4445
398.0,0.6226
398.5,0.6436
399.0,0.6971
399.5,0.6949
400.0,0.7217
401.0,0.7321
402.0,0.7726
403.0,0.7342
404.0,0.7231
405.0,0.7232
406.0,0.7117
407.0,0.7005
408.0,0.728
409.0,0.7794
410.0,0.6812
411.0,0.7381
412.0,0.793
413.0,0.7735
414.0,0.7832
415.0,0.7855
416.0,0.7994
417.0,0.7799
418.0,0.7657
419.0,0.7759
420.0,0.7727
421.0,0.8085
422.0,0.7687
423.0,0.751
424.0,0.7945
425.0,0.7932
426.0,0.7728
427.0,0.7585
428.0,0.739
429.0,0.7002
430.0,0.6129
431.0,0.6076
432.0,0.7846
433.0,0.7891
434.0,0.7328
435.0,0.7654
436.0,0.8626
437.0,0.8512
438.0,0.7752
439.0,0.8018
440.0,0.8275
441.0,0.8576
442.0,0.9199
443.0,0.896
444.0,0.9156
445.0,0.8959
446.0,0.8551
447.0,0.9246
448.0,0.9391
449.0,0.943
450.0,0.9695
451.0,1.006
452.0,0.9689
453.0,0.9114
454.0,0.9515
455.0,0.9575
456.0,0.9803
457.0,0.9967
458.0,0.9627
459.0,0.9578
460.0,0.9604
461.0,0.9826
462.0,0.9903
463.0,0.9835
464.0,0.9674
465.0,0.9552
466.0,0.9646
467.0,0.947
468.0,0.9581
469.0,0.9632
470.0,0.9325
471.0,0.9314
472.0,0.9814
473.0,0.9687
474.0,0.9701
475.0,0.9784
476.0,0.9491
477.0,0.9518
478.0,0.9782
479.0,0.9723
480.0,0.9742
481.0,0.9924
482.0,0.9977
483.0,0.9857
484.0,0.9655
485.0,0.92
486.0,0.8043
487.0,0.8429
488.0,0.9248
489.0,0.9277
490.0,0.976
491.0,0.9592
492.0,0.9058
493.0,0.9355
494.0,0.9449
495.0,0.953
496.0,0.9589
497.0,0.9737
498.0,0.9282
499.0,0.9401
500.0,0.9127
501.0,0.8959
502.0,0.8833
503.0,0.9192
504.0,0.8957
505.0,0.9279
506.0,0.9579
507.0,0.9115
508.0,0.8832
509.0,0.908
510.0,0.9032
511.0,0.9275
512.0,0.9376
513.0,0.8874
514.0,0.8813
515.0,0.8726
516.0,0.8704
517.0,0.7735
518.0,0.8132
519.0,0.8529
520.0,0.8839
521.0,0.8923
522.0,0.8931
523.0,0.877
524.0,0.9084
525.0,0.919
526.0,0.8779
527.0,0.8272
528.0,0.8749
529.0,0.9222
530.0,0.9089
531.0,0.9224
532.0,0.8907
533.0,0.8646
534.0,0.8902
535.0,0.9096
536.0,0.918
537.0,0.8818
538.0,0.8974
539.0,0.8898
540.0,0.8531
541.0,0.8587
542.0,0.8856
543.0,0.8763
544.0,0.8915
545.0,0.8887
546.0,0.8926
547.0,0.8922
548.0,0.8816
549.0,0.8843
550.0,0.8948
551.0,0.8839
552.0,0.8901
553.0,0.8741
554.0,0.8951
555.0,0.8968
556.0,0.8852
557.0,0.8576
558.0,0.8512
559.0,0.8352
560.0,0.8456
561.0,0.8566
562.0,0.8503
563.0,0.8735
564.0,0.8497
565.0,0.8423
566.0,0.8299
567.0,0.8456
568.0,0.8379
569.0,0.8178
570.0,0.8176
571.0,0.8127
572.0,0.8321
573.0,0.8409
574.0,0.8382
575.0,0.8225
576.0,0.815
577.0,0.8239
578.0,0.8116
579.0,0.8149
580.0,0.8306
581.0,0.8351
582.0,0.851
583.0,0.8532
584.0,0.8606
585.0,0.8397
586.0,0.8224
587.0,0.8403
588.0,0.8196
589.0,0.7255
590.0,0.7588
591.0,0.8033
592.0,0.7929
593.0,0.8049
594.0,0.7992
595.0,0.7793
596.0,0.8105
597.0,0.8016
598.0,0.7997
599.0,0.8005
600.0,0.8018
601.0,0.7954
602.0,0.79
603.0,0.8031
604.0,0.8164
605.0,0.8122
606.0,0.8089
607.0,0.817
608.0,0.808
609.0,0.8095
610.0,0.8037
611.0,0.808
612.0,0.8056
613.0,0.7955
614.0,0.7847
615.0,0.8018
616.0,0.7755
617.0,0.7739
618.0,0.8037
619.0,0.7956
620.0,0.8006
621.0,0.8014
622.0,0.792
623.0,0.7799
624.0,0.7665
625.0,0.7648
626.0,0.7761
627.0,0.7847
628.0,0.7313
629.0,0.7656
630.0,0.7479
631.0,0.7653
632.0,0.7562
633.0,0.7794
634.0,0.772
635.0,0.7841
636.0,0.7738
637.0,0.7866
638.0,0.7943
639.0,0.7854
640.0,0.7779
641.0,0.7774
642.0,0.774
643.0,0.7844
644.0,0.7819
645.0,0.7831
646.0,0.7647
647.0,0.7552
648.0,0.7559
649.0,0.7412
650.0,0.7453
651.0,0.7777
652.0,0.7448
653.0,0.7674
654.0,0.7589
655.0,0.7304
656.0,0.6475
657.0,0.665
658.0,0.7454
659.0,0.7508
660.0,0.754
661.0,0.7593
662.0,0.7607
663.0,0.7457
664.0,0.7547
665.0,0.7555
666.0,0.7561
667.0,0.7554
668.0,0.7558
669.0,0.7676
670.0,0.7643
671.0,0.7641
672.0,0.7576
673.0,0.7691
674.0,0.7662
675.0,0.7593
676.0,0.7645
677.0,0.7569
678.0,0.7591
679.0,0.7469
680.0,0.7528
681.0,0.7479
682.0,0.7469
683.0,0.7455
684.0,0.7418
685.0,0.7482
686.0,0.7437
687.0,0.4871
688.0,0.574
689.0,0.5762
690.0,0.6054
691.0,0.6384
692.0,0.6626
693.0,0.6571
694.0,0.6516
695.0,0.6794
696.0,0.6804
697.0,0.7231
698.0,0.7118
699.0,0.6941
700.0,0.6857
701.0,0.6785
702.0,0.6835
703.0,0.6848
704.0,0.7071
705.0,0.7081
706.0,0.7077
707.0,0.7083
708.0,0.7098
709.0,0.711
710.0,0.7109
711.0,0.71
712.0,0.708
713.0,0.7008
714.0,0.7034
715.0,0.681
716.0,0.6813
717.0,0.5885
718.0,0.5401
719.0,0.4945
720.0,0.5178
721.0,0.5731
722.0,0.6573
723.0,0.6111
724.0,0.5496
725.0,0.5404
726.0,0.5659
727.0,0.5745
728.0,0.539
729.0,0.56
730.0,0.5925
731.0,0.5667
732.0,0.6071
733.0,0.6435
734.0,0.659
735.0,0.6452
736.0,0.6444
737.0,0.647
738.0,0.6575
739.0,0.6446
740.0,0.6615
741.0,0.6551
742.0,0.6558
743.0,0.6725
744.0,0.6707
745.0,0.6709
746.0,0.674
747.0,0.6755
748.0,0.674
749.0,0.6664
750.0,0.666
751.0,0.6592
752.0,0.6621
753.0,0.6654
754.0,0.6669
755.0,0.6631
756.0,0.6629
757.0,0.6638
758.0,0.6555
759.0,0.6419
760.0,0.09972
761.0,0.05095
762.0,0.3201
763.0,0.1551
764.0,0.2374
765.0,0.32
766.0,0.397
767.0,0.5051
768.0,0.5863
769.0,0.5994
770.0,0.6207
771.0,0.6261
772.0,0.6275
773.0,0.6319
774.0,0.6289
775.0,0.6242
776.0,0.6318
777.0,0.6234
778.0,0.6197
779.0,0.6202
780.0,0.6167
781.0,0.6173
782.0,0.6212
783.0,0.6104
784.0,0.6134
785.0,0.6088
786.0,0.6155
787.0,0.6044
788.0,0.5967
789.0,0.5964
790.0,0.5801
791.0,0.5856
792.0,0.5813
793.0,0.5719
794.0,0.5821
795.0,0.5919
796.0,0.573
797.0,0.5737
798.0,0.5911
799.0,0.5872
800.0,0.5768
801.0,0.5749
802.0,0.5732
803.0,0.5688
804.0,0.5696
805.0,0.568
806.0,0.5843
807.0,0.5772
808.0,0.5777
809.0,0.5666
810.0,0.5618
811.0,0.5622
812.0,0.5457
813.0,0.534
814.0,0.4683
815.0,0.4655
816.0,0.4331
817.0,0.4412
818.0,0.4243
819.0,0.4757
820.0,0.4475
821.0,0.5249
822.0,0.5096
823.0,0.3436
824.0,0.4941
825.0,0.5158
826.0,0.4956
827.0,0.5236
828.0,0.4422
829.0,0.4927
830.0,0.4861
831.0,0.4878
832.0,0.4726
833.0,0.5037
834.0,0.4852
835.0,0.5344
836.0,0.5107
837.0,0.5359
838.0,0.5188
839.0,0.5279
840.0,0.5396
841.0,0.5318
842.0,0.5332
843.0,0.5332
844.0,0.5256
845.0,0.5436
846.0,0.5413
847.0,0.5313
848.0,0.5279
849.0,0.5129
850.0,0.4914
851.0,0.5201
852.0,0.5165
853.0,0.4973
854.0,0.4293
855.0,0.4718
856.0,0.5155
857.0,0.5271
858.0,0.5232
859.0,0.5237
860.0,0.5247
861.0,0.5218
862.0,0.53
863.0,0.5426
864.0,0.5155
865.0,0.511
866.0,0.4594
867.0,0.4795
868.0,0.5217
869.0,0.5109
870.0,0.5255
871.0,0.5183
872.0,0.5165
873.0,0.5155
874.0,0.5094
875.0,0.499
876.0,0.5042
877.0,0.5093
878.0,0.5148
879.0,0.5069
880.0,0.496
881.0,0.4885
882.0,0.499
883.0,0.5007
884.0,0.4984
885.0,0.5021
886.0,0.4782
887.0,0.4836
888.0,0.4905
889.0,0.4964
890.0,0.4919
891.0,0.4912
892.0,0.4766
893.0,0.4611
894.0,0.4439
895.0,0.4181
896.0,0.3934
897.0,0.3362
898.0,0.3678
899.0,0.2777
900.0,0.3777
901.0,0.2911
902.0,0.3444
903.0,0.3469
904.0,0.4406
905.0,0.4249
906.0,0.3971
907.0,0.32
908.0,0.3268
909.0,0.3552
910.0,0.3119
911.0,0.3339
912.0,0.3495
913.0,0.3164
914.0,0.3141
915.0,0.3406
916.0,0.2877
917.0,0.3676
918.0,0.2949
919.0,0.3749
920.0,0.3801
921.0,0.3955
922.0,0.3519
923.0,0.3822
924.0,0.3604
925.0,0.3526
926.0,0.3563
927.0,0.4006
928.0,0.2889
929.0,0.2624
930.0,0.2039
931.0,0.1935
932.0,0.137
933.0,0.1101
934.0,0.05778
935.0,0.1137
936.0,0.06933
937.0,0.07008
938.0,0.08684
939.0,0.1875
940.0,0.2272
941.0,0.1692
942.0,0.1973
943.0,0.1279
944.0,0.1365
945.0,0.1749
946.0,0.08652
947.0,0.175
948.0,0.1282
949.0,0.2368
950.0,0.06201
951.0,0.2336
952.0,0.1222
953.0,0.16
954.0,0.1987
955.0,0.1621
956.0,0.1589
957.0,0.1221
958.0,0.2285
959.0,0.1787
960.0,0.2004
961.0,0.2271
962.0,0.2146
963.0,0.2493
964.0,0.2278
965.0,0.2486
966.0,0.2481
967.0,0.2469
968.0,0.3379
969.0,0.3522
970.0,0.3226
971.0,0.3723
972.0,0.3555
973.0,0.3065
974.0,0.2905
975.0,0.3027
976.0,0.2858
977.0,0.3285
978.0,0.3107
979.0,0.3264
980.0,0.3063
981.0,0.3702
982.0,0.3529
983.0,0.3382
984.0,0.3828
985.0,0.3516
986.0,0.3903
987.0,0.3817
988.0,0.3811
989.0,0.3896
990.0,0.3788
991.0,0.3906
992.0,0.393
993.0,0.3834
994.0,0.393
995.0,0.3926
996.0,0.3907
997.0,0.3914
998.0,0.3895
999.0,0.3881
1000.0,0.3851
1001.0,0.3902
1002.0,0.3786
1003.0,0.3832
1004.0,0.3736
1005.0,0.3603
1006.0,0.3742
1007.0,0.3822
1008.0,0.38
1009.0,0.3777
1010.0,0.3761
1011.0,0.3803
1012.0,0.3768
1013.0,0.3794
1014.0,0.3767
1015.0,0.3742
1016.0,0.3725
1017.0,0.3734
1018.0,0.3721
1019.0,0.3639
1020.0,0.3701
1021.0,0.3697
1022.0,0.3667
1023.0,0.3705
1024.0,0.3654
1025.0,0.3704
1026.0,0.3687
1027.0,0.3679
1028.0,0.3671
1029.0,0.3627
1030.0,0.3653
1031.0,0.3638
1032.0,0.3628
1033.0,0.3573
1034.0,0.3574
1035.0,0.3585
1036.0,0.3603
1037.0,0.3544
1038.0,0.356
1039.0,0.3558
1040.0,0.3543
1041.0,0.3557
1042.0,0.3532
1043.0,0.3521
1044.0,0.3533
1045.0,0.3485
1046.0,0.3446
1047.0,0.3477
1048.0,0.3496
1049.0,0.3483
1050.0,0.3467
1051.0,0.3461
1052.0,0.3447
1053.0,0.3419
1054.0,0.3426
1055.0,0.3428
1056.0,0.3415
1057.0,0.3404
1058.0,0.332
1059.0,0.3323
1060.0,0.3317
1061.0,0.3313
1062.0,0.333
1063.0,0.3297
1064.0,0.3336
1065.0,0.3311
1066.0,0.3246
1067.0,0.3288
1068.0,0.3215
1069.0,0.3116
1070.0,0.3221
1071.0,0.3274
1072.0,0.3234
1073.0,0.3188
1074.0,0.3274
1075.0,0.3101
1076.0,0.3271
1077.0,0.3207
1078.0,0.3144
1079.0,0.322
1080.0,0.3158
1081.0,0.3052
1082.0,0.3109
1083.0,0.312
1084.0,0.3042
1085.0,0.3166
1086.0,0.2875
1087.0,0.2978
1088.0,0.3116
1089.0,0.3011
1090.0,0.294
1091.0,0.3103
1092.0,0.3097
1093.0,0.2601
1094.0,0.283
1095.0,0.2713
1096.0,0.259
1097.0,0.3025
1098.0,0.2546
1099.0,0.266
1100.0,0.2462
1101.0,0.2496
1102.0,0.2378
1103.0,0.2349
1104.0,0.2353
1105.0,0.2597
1106.0,0.1945
1107.0,0.2459
1108.0,0.2059
1109.0,0.2068
1110.0,0.2433
1111.0,0.1617
1112.0,0.2054
1113.0,0.1273
1114.0,0.1426
1115.0,0.118
1116.0,0.09219
1117.0,0.03169
1118.0,0.101
1119.0,0.04831
1120.0,0.06067
1121.0,0.08161
1122.0,0.03279
1123.0,0.0549
1124.0,0.04631
1125.0,0.06087
1126.0,0.01966
1127.0,0.0688
1128.0,0.03948
1129.0,0.04212
1130.0,0.02711
1131.0,0.1346
1132.0,0.1048
1133.0,0.06419
1134.0,0.01518
1135.0,0.005763
1136.0,0.05275
1137.0,0.1315
1138.0,0.09218
1139.0,0.1419
1140.0,0.1169
1141.0,0.08764
1142.0,0.1017
1143.0,0.1462
1144.0,0.04898
1145.0,0.06195
1146.0,0.06679
1147.0,0.02192
1148.0,0.1265
1149.0,0.09967
1150.0,0.05292
1151.0,0.09145
1152.0,0.1141
1153.0,0.1124
1154.0,0.05985
1155.0,0.1479
1156.0,0.1324
1157.0,0.1499
1158.0,0.1483
1159.0,0.161
1160.0,0.1365
1161.0,0.1704
1162.0,0.1711
1163.0,0.2347
1164.0,0.2
1165.0,0.1874
1166.0,0.187
1167.0,0.2044
1168.0,0.2063
1169.0,0.2116
1170.0,0.231
1171.0,0.2251
1172.0,0.2298
1173.0,0.2305
1174.0,0.1623
1175.0,0.2257
1176.0,0.2493
1177.0,0.2385
1178.0,0.1774
1179.0,0.2513
1180.0,0.223
1181.0,0.2302
1182.0,0.1571
1183.0,0.227
1184.0,0.2121
1185.0,0.2042
1186.0,0.2438
1187.0,0.2317
1188.0,0.1595
1189.0,0.2157
1190.0,0.2383
1191.0,0.2253
1192.0,0.2418
1193.0,0.2313
1194.0,0.2387
1195.0,0.2251
1196.0,0.2164
1197.0,0.2391
1198.0,0.2183
1199.0,0.1844
1200.0,0.2284
1201.0,0.2198
1202.0,0.2189
1203.0,0.2169
1204.0,0.189
1205.0,0.2244
1206.0,0.2485
1207.0,0.2181
1208.0,0.2151
1209.0,0.2196
1210.0,0.2291
1211.0,0.2177
1212.0,0.2145
1213.0,0.24
1214.0,0.2199
1215.0,0.2156
1216.0,0.2393
1217.0,0.2328
1218.0,0.2374
1219.0,0.2343
1220.0,0.2376
1221.0,0.2401
1222.0,0.2338
1223.0,0.2315
1224.0,0.2298
1225.0,0.2386
1226.0,0.2403
1227.0,0.2211
1228.0,0.2417
1229.0,0.2404
1230.0,0.2361
1231.0,0.2432
1232.0,0.2418
1233.0,0.233
1234.0,0.2431
1235.0,0.2415
1236.0,0.2433
1237.0,0.2397
1238.0,0.2425
1239.0,0.2394
1240.0,0.2403
1241.0,0.2391
1242.0,0.2387
1243.0,0.2367
1244.0,0.2384
1245.0,0.2394
1246.0,0.238
1247.0,0.2371
1248.0,0.2369
1249.0,0.2376
1250.0,0.2362
1251.0,0.2331
1252.0,0.2332
1253.0,0.2312
1254.0,0.2287
1255.0,0.2329
1256.0,0.2261
1257.0,0.2248
1258.0,0.2292
1259.0,0.2204
1260.0,0.2216
1261.0,0.2086
1262.0,0.202
1263.0,0.2023
1264.0,0.186
1265.0,0.201
1266.0,0.193
1267.0,0.1967
1268.0,0.186
1269.0,0.1121
1270.0,0.1959
1271.0,0.2079
1272.0,0.2087
1273.0,0.2064
1274.0,0.2072
1275.0,0.2103
1276.0,0.2124
1277.0,0.214
1278.0,0.2184
1279.0,0.2164
1280.0,0.2137
1281.0,0.204
1282.0,0.1967
1283.0,0.2119
1284.0,0.2169
1285.0,0.2183
1286.0,0.2214
1287.0,0.2178
1288.0,0.2178
1289.0,0.2105
1290.0,0.2159
1291.0,0.219
1292.0,0.205
1293.0,0.2145
1294.0,0.213
1295.0,0.2118
1296.0,0.2017
1297.0,0.1904
1298.0,0.2057
1299.0,0.2149
1300.0,0.1806
1301.0,0.1864
1302.0,0.2051
1303.0,0.1784
1304.0,0.1509
1305.0,0.2008
1306.0,0.2007
1307.0,0.1546
1308.0,0.1789
1309.0,0.199
1310.0,0.1516
1311.0,0.1712
1312.0,0.1664
1313.0,0.1629
1314.0,0.1454
1315.0,0.1432
1316.0,0.1683
1317.0,0.1592
1318.0,0.1736
1319.0,0.1341
1320.0,0.1303
1321.0,0.1523
1322.0,0.1536
1323.0,0.1142
1324.0,0.1316
1325.0,0.1658
1326.0,0.1414
1327.0,0.1346
1328.0,0.1156
1329.0,0.0856
1330.0,0.1121
1331.0,0.06612
1332.0,0.0688
1333.0,0.09611
1334.0,0.08219
1335.0,0.1137
1336.0,0.08913
1337.0,0.0784
1338.0,0.08484
1339.0,0.08469
1340.0,0.0828
1341.0,0.07985
1342.0,0.08396
1343.0,0.05486
1344.0,0.03299
1345.0,0.04765
1346.0,0.02242
1347.0,0.02258
1348.0,0.001299
1349.0,0.004827
1350.0,0.005137
1351.0,0.00112
1352.0,0.000268
1353.0,1.211e-05
1354.0,4.532e-05
1355.0,2.826e-07
1356.0,5.869e-06
1357.0,8.966e-06
1358.0,3.382e-07
1359.0,3.507e-08
1360.0,1.444e-07
1361.0,1.071e-10
1362.0,2.476e-13
1363.0,1.834e-07
1364.0,7.556e-08
1365.0,6.932e-14
1366.0,8.446e-07
1367.0,3.6e-07
1368.0,3.456e-16
1369.0,2.8e-08
1370.0,1.272e-08
1371.0,6.55e-10
1372.0,1.985e-07
1373.0,4.574e-06
1374.0,2.329e-05
1375.0,4.204e-05
1376.0,4.1e-05
1377.0,1.842e-05
1378.0,0.0001873
1379.0,7.726e-06
1380.0,1.051e-05
1381.0,2.61e-07
1382.0,1.749e-07
1383.0,2.445e-09
1384.0,3.061e-08
1385.0,1.819e-07
1386.0,1.47e-07
1387.0,2.28e-05
1388.0,4.526e-07
1389.0,8.587e-05
1390.0,7.367e-05
1391.0,4.83e-05
1392.0,3.058e-06
1393.0,1.705e-05
1394.0,7.582e-06
1395.0,5.046e-08
1396.0,1.633e-10
1397.0,6.55e-06
1398.0,0.0002081
1399.0,0.0001325
1400.0,6.321e-11
1401.0,3.058e-10
1402.0,0.0004209
1403.0,0.0005159
1404.0,0.0001554
1405.0,2.289e-08
1406.0,0.0003874
1407.0,3.546e-05
1408.0,0.0003194
1409.0,9.939e-05
1410.0,8.392e-05
1411.0,0.000456
1412.0,0.0006384
1413.0,0.007347
1414.0,6.69e-05
1415.0,3.1e-05
1416.0,0.01303
1417.0,0.003625
1418.0,0.004062
1419.0,0.0006175
1420.0,0.002475
1421.0,0.00269
1422.0,0.01707
1423.0,0.003227
1424.0,0.006141
1425.0,0.008876
1426.0,0.01046
1427.0,0.02013
1428.0,0.001206
1429.0,0.0146
1430.0,0.02606
1431.0,0.02893
1432.0,0.0009433
1433.0,0.01799
1434.0,0.008945
1435.0,0.008253
1436.0,0.01699
1437.0,0.01304
1438.0,0.005216
