interpolation:linear
wavelength,value
280.0,2.775e-22
280.5,9.129e-21
281.0,4.8940000000000007e-20
281.5,4.024e-19
282.0,6.6e-19
282.5,1.638e-18
283.0,5.18e-18
283.5,8.434e-18
284.0,1.39e-16
284.5,4.054e-16
285.0,6.674e-16
285.5,3.334e-15
286.0,1.345e-14
286.5,6.059e-14
287.0,1.739e-13
287.5,6.708e-13
288.0,2.324e-12
288.5,6.996e-12
289.0,1.857e-11
289.5,5.595e-11
290.0,1.551e-10
290.5,3.161e-10
291.0,6.783e-10
291.5,1.947e-09
292.0,3.926e-09
292.5,5.519e-09
293.0,1.187e-08
293.5,2.897e-08
294.0,4.538e-08
294.5,6.22e-08
295.0,1.056e-07
295.5,1.774e-07
296.0,3.454e-07
296.5,4.881e-07
297.0,6.665e-07
297.5,1.818e-06
298.0,2.911e-06
298.5,2.969e-06
299.0,6.644e-06
299.5,1.137e-05
300.0,1.274e-05
300.5,1.883e-05
301.0,3.533e-05
301.5,5.832e-05
302.0,5.081e-05
302.5,0.0001025
303.0,0.0001929
303.5,0.0002521
304.0,0.0002455
304.5,0.0004034
305.0,0.0007029
305.5,0.0008808
306.0,0.0008831
306.5,0.001167
307.0,0.001978
307.5,0.002997
308.0,0.003235
308.5,0.004081
309.0,0.004143
309.5,0.005246
310.0,0.00552
310.5,0.009148
311.0,0.01192
311.5,0.0117
312.0,0.01268
312.5,0.01628
313.0,0.01815
313.5,0.01718
314.0,0.02289
314.5,0.02207
315.0,0.02943
315.5,0.02365
316.0,0.0221
316.5,0.03363
317.0,0.04171
317.5,0.0427
318.0,0.03466
318.5,0.04641
319.0,0.0572
319.5,0.04388
320.0,0.05254
320.5,0.07099
321.0,0.06772
321.5,0.06539
322.0,0.06475
322.5,0.05655
323.0,0.0591
323.5,0.07598
324.0,0.08939
324.5,0.08901
325.0,0.07503
325.5,0.1003
326.0,0.1241
326.5,0.1275
327.0,0.1259
327.5,0.1202
328.0,0.1036
328.5,0.1134
329.0,0.1402
329.5,0.1608
330.0,0.1609
330.5,0.1257
331.0,0.127
331.5,0.1315
332.0,0.146
332.5,0.1462
333.0,0.1448
333.5,0.1286
334.0,0.1313
334.5,0.155
335.0,0.1476
335.5,0.173
336.0,0.1198
336.5,0.139
337.0,0.113
337.5,0.1402
338.0,0.1394
338.5,0.1618
339.0,0.1604
339.5,0.1543
340.0,0.1806
340.5,0.1631
341.0,0.1597
341.5,0.147
342.0,0.1758
342.5,0.1647
343.0,0.181
343.5,0.1703
344.0,0.1255
344.5,0.1271
345.0,0.1687
345.5,0.1725
346.0,0.1468
346.5,0.1664
347.0,0.1786
347.5,0.1444
348.0,0.1649
348.5,0.1651
349.0,0.1533
349.5,0.1519
350.0,0.188
350.5,0.1984
351.0,0.1772
351.5,0.172
352.0,0.1851
352.5,0.1447
353.0,0.1824
353.5,0.1953
354.0,0.2029
354.5,0.2058
355.0,0.2052
355.5,0.1856
356.0,0.1943
356.5,0.166
357.0,0.1372
357.5,0.168
358.0,0.1333
358.5,0.1139
359.0,0.1594
359.5,0.2031
360.0,0.2155
360.5,0.1723
361.0,0.1573
361.5,0.1813
362.0,0.157
362.5,0.2175
363.0,0.1956
363.5,0.1803
364.0,0.2207
364.5,0.1888
365.0,0.1924
365.5,0.2416
366.0,0.2562
366.5,0.241
367.0,0.2349
367.5,0.2439
368.0,0.2136
368.5,0.2156
369.0,0.2331
369.5,0.2486
370.0,0.2652
370.5,0.206
371.0,0.2203
371.5,0.2758
372.0,0.1831
372.5,0.2197
373.0,0.2237
373.5,0.1457
374.0,0.2118
374.5,0.1756
375.0,0.1708
375.5,0.2551
376.0,0.2116
376.5,0.2194
377.0,0.2324
377.5,0.2721
378.0,0.2951
378.5,0.2791
379.0,0.2304
379.5,0.2105
380.0,0.219
380.5,0.2655
381.0,0.2663
381.5,0.2113
382.0,0.1879
382.5,0.1603
383.0,0.1486
383.5,0.1432
384.0,0.1581
384.5,0.2327
385.0,0.2309
385.5,0.2153
386.0,0.1845
386.5,0.2426
387.0,0.2017
387.5,0.2267
388.0,0.2094
388.5,0.2072
389.0,0.2238
389.5,0.2713
390.0,0.2724
390.5,0.2509
391.0,0.2956
391.5,0.3016
392.0,0.2542
392.5,0.2278
393.0,0.1269
393.5,0.09228
394.0,0.1879
394.5,0.2391
395.0,0.2919
395.5,0.2967
396.0,0.2574
396.5,0.1506
397.0,0.1131
397.5,0.2302
398.0,0.3225
398.5,0.3335
399.0,0.3616
399.5,0.3606
400.0,0.3745
401.0,0.3778
402.0,0.3992
403.0,0.3799
404.0,0.3744
405.0,0.3748
406.0,0.3693
407.0,0.3639
408.0,0.3784
409.0,0.4054
410.0,0.3547
411.0,0.3848
412.0,0.414
413.0,0.404
414.0,0.4095
415.0,0.4112
416.0,0.419
417.0,0.4091
418.0,0.4019
419.0,0.4077
420.0,0.4063
421.0,0.4255
422.0,0.4048
423.0,0.3958
424.0,0.4189
425.0,0.4187
426.0,0.4086
427.0,0.4013
428.0,0.3912
429.0,0.3712
430.0,0.3252
431.0,0.3224
432.0,0.4169
433.0,0.4196
434.0,0.3899
435.0,0.4073
436.0,0.4597
437.0,0.4542
438.0,0.4141
439.0,0.4279
440.0,0.442
441.0,0.4586
442.0,0.4922
443.0,0.4793
444.0,0.4903
445.0,0.4798
446.0,0.4588
447.0,0.4968
448.0,0.5043
449.0,0.5072
450.0,0.5219
451.0,0.5416
452.0,0.5223
453.0,0.4917
454.0,0.5139
455.0,0.5172
456.0,0.5299
457.0,0.5389
458.0,0.5202
459.0,0.5178
460.0,0.519
461.0,0.5312
462.0,0.5359
463.0,0.5323
464.0,0.5245
465.0,0.5187
466.0,0.5244
467.0,0.5147
468.0,0.5208
469.0,0.5236
470.0,0.5069
471.0,0.5065
472.0,0.5337
473.0,0.5269
474.0,0.5272
475.0,0.5311
476.0,0.5145
477.0,0.5154
478.0,0.5299
479.0,0.5272
480.0,0.5287
481.0,0.5393
482.0,0.5429
483.0,0.5372
484.0,0.5268
485.0,0.5024
486.0,0.4398
487.0,0.4615
488.0,0.5063
489.0,0.5077
490.0,0.5346
491.0,0.5257
492.0,0.4966
493.0,0.513
494.0,0.5182
495.0,0.5228
496.0,0.526
497.0,0.5341
498.0,0.5091
499.0,0.5153
500.0,0.4998
501.0,0.4901
502.0,0.4822
503.0,0.5008
504.0,0.4851
505.0,0.5049
506.0,0.5212
507.0,0.4961
508.0,0.4816
509.0,0.4958
510.0,0.4939
511.0,0.5077
512.0,0.5136
513.0,0.4862
514.0,0.4832
515.0,0.4784
516.0,0.4771
517.0,0.4241
518.0,0.4458
519.0,0.4676
520.0,0.4845
521.0,0.489
522.0,0.4891
523.0,0.4801
524.0,0.4968
525.0,0.5018
526.0,0.4791
527.0,0.4508
528.0,0.4763
529.0,0.5016
530.0,0.4941
531.0,0.5012
532.0,0.4838
533.0,0.4697
534.0,0.4838
535.0,0.4948
536.0,0.4996
537.0,0.4803
538.0,0.4889
539.0,0.4848
540.0,0.4646
541.0,0.4668
542.0,0.481
543.0,0.4766
544.0,0.4841
545.0,0.4828
546.0,0.4842
547.0,0.4846
548.0,0.4791
549.0,0.4808
550.0,0.4866
551.0,0.4808
552.0,0.4842
553.0,0.4754
554.0,0.4867
555.0,0.4874
556.0,0.4809
557.0,0.4657
558.0,0.4617
559.0,0.4526
560.0,0.4579
561.0,0.4634
562.0,0.4595
563.0,0.4714
564.0,0.458
565.0,0.4536
566.0,0.4465
567.0,0.4543
568.0,0.4487
569.0,0.435
570.0,0.4353
571.0,0.4334
572.0,0.4418
573.0,0.4461
574.0,0.4443
575.0,0.4352
576.0,0.4313
577.0,0.4363
578.0,0.4307
579.0,0.4338
580.0,0.4443
581.0,0.4482
582.0,0.4582
583.0,0.4606
584.0,0.4654
585.0,0.4545
586.0,0.4453
587.0,0.4541
588.0,0.4393
589.0,0.3819
590.0,0.3999
591.0,0.4276
592.0,0.4196
593.0,0.4292
594.0,0.4248
595.0,0.4116
596.0,0.4339
597.0,0.4276
598.0,0.4283
599.0,0.4295
600.0,0.4317
601.0,0.4293
602.0,0.4266
603.0,0.4342
604.0,0.4417
605.0,0.4398
606.0,0.4386
607.0,0.4437
608.0,0.4395
609.0,0.4408
610.0,0.4384
611.0,0.441
612.0,0.4402
613.0,0.435
614.0,0.4296
615.0,0.4395
616.0,0.4255
617.0,0.425
618.0,0.4417
619.0,0.4374
620.0,0.4402
621.0,0.4401
622.0,0.4345
623.0,0.4275
624.0,0.4206
625.0,0.4197
626.0,0.4257
627.0,0.429
628.0,0.3837
629.0,0.413
630.0,0.4028
631.0,0.4177
632.0,0.4138
633.0,0.4288
634.0,0.4266
635.0,0.4342
636.0,0.4296
637.0,0.4374
638.0,0.443
639.0,0.4387
640.0,0.4353
641.0,0.4356
642.0,0.4344
643.0,0.4403
644.0,0.4396
645.0,0.44
646.0,0.4276
647.0,0.4178
648.0,0.4184
649.0,0.4096
650.0,0.4177
651.0,0.4369
652.0,0.4126
653.0,0.4315
654.0,0.4272
655.0,0.4082
656.0,0.3639
657.0,0.3741
658.0,0.4212
659.0,0.425
660.0,0.4272
661.0,0.4304
662.0,0.4302
663.0,0.4221
664.0,0.4288
665.0,0.4305
666.0,0.4314
667.0,0.4317
668.0,0.4326
669.0,0.4397
670.0,0.4381
671.0,0.4384
672.0,0.4348
673.0,0.4417
674.0,0.4404
675.0,0.4366
676.0,0.4399
677.0,0.4358
678.0,0.4373
679.0,0.4304
680.0,0.434
681.0,0.4313
682.0,0.4307
683.0,0.43
684.0,0.4278
685.0,0.4318
686.0,0.4289
687.0,0.215
688.0,0.282
689.0,0.2841
690.0,0.3091
691.0,0.3384
692.0,0.3617
693.0,0.358
694.0,0.3565
695.0,0.3802
696.0,0.3813
697.0,0.415
698.0,0.4083
699.0,0.3914
700.0,0.3864
701.0,0.3796
702.0,0.3851
703.0,0.3865
704.0,0.4031
705.0,0.4037
706.0,0.4049
707.0,0.406
708.0,0.4066
709.0,0.4101
710.0,0.4086
711.0,0.4091
712.0,0.4092
713.0,0.4038
714.0,0.4057
715.0,0.39
716.0,0.3895
717.0,0.3121
718.0,0.2844
719.0,0.2585
720.0,0.2681
721.0,0.3106
722.0,0.3712
723.0,0.3377
724.0,0.2946
725.0,0.2868
726.0,0.301
727.0,0.3118
728.0,0.2849
729.0,0.3045
730.0,0.3203
731.0,0.3047
732.0,0.3354
733.0,0.3638
734.0,0.3752
735.0,0.3659
736.0,0.3651
737.0,0.3666
738.0,0.3792
739.0,0.3718
740.0,0.3836
741.0,0.381
742.0,0.3826
743.0,0.3928
744.0,0.3925
745.0,0.3932
746.0,0.395
747.0,0.396
748.0,0.3953
749.0,0.3909
750.0,0.3907
751.0,0.3868
752.0,0.3885
753.0,0.3906
754.0,0.3915
755.0,0.3892
756.0,0.3891
757.0,0.3897
758.0,0.3847
759.0,0.3724
760.0,0.0188
761.0,0.006707
762.0,0.1217
763.0,0.0377
764.0,0.0746
765.0,0.1215
766.0,0.1768
767.0,0.2562
768.0,0.3259
769.0,0.34
770.0,0.36
771.0,0.3666
772.0,0.3686
773.0,0.3715
774.0,0.37
775.0,0.3674
776.0,0.3719
777.0,0.3671
778.0,0.3648
779.0,0.3651
780.0,0.3632
781.0,0.3636
782.0,0.3659
783.0,0.3597
784.0,0.3615
785.0,0.3585
786.0,0.3622
787.0,0.3525
788.0,0.3466
789.0,0.3463
790.0,0.3326
791.0,0.34
792.0,0.3382
793.0,0.3322
794.0,0.3425
795.0,0.347
796.0,0.33
797.0,0.3299
798.0,0.3459
799.0,0.3425
800.0,0.335
801.0,0.3325
802.0,0.3314
803.0,0.3281
804.0,0.3293
805.0,0.3301
806.0,0.3426
807.0,0.3378
808.0,0.3384
809.0,0.3295
810.0,0.3253
811.0,0.3224
812.0,0.3088
813.0,0.3006
814.0,0.2525
815.0,0.2518
816.0,0.2328
817.0,0.2378
818.0,0.2262
819.0,0.263
820.0,0.2441
821.0,0.3006
822.0,0.2895
823.0,0.1743
824.0,0.2753
825.0,0.2954
826.0,0.2792
827.0,0.2997
828.0,0.2396
829.0,0.2785
830.0,0.2737
831.0,0.2748
832.0,0.2637
833.0,0.2873
834.0,0.2726
835.0,0.3101
836.0,0.2896
837.0,0.3112
838.0,0.2978
839.0,0.3071
840.0,0.3148
841.0,0.3087
842.0,0.3118
843.0,0.3142
844.0,0.3085
845.0,0.3207
846.0,0.3198
847.0,0.3146
848.0,0.3115
849.0,0.3026
850.0,0.2901
851.0,0.3059
852.0,0.3043
853.0,0.2939
854.0,0.2529
855.0,0.279
856.0,0.3045
857.0,0.312
858.0,0.3094
859.0,0.3102
860.0,0.3111
861.0,0.3093
862.0,0.3143
863.0,0.3217
864.0,0.3057
865.0,0.3031
866.0,0.2726
867.0,0.2845
868.0,0.3096
869.0,0.3032
870.0,0.3119
871.0,0.3077
872.0,0.3066
873.0,0.306
874.0,0.3024
875.0,0.2962
876.0,0.2993
877.0,0.3024
878.0,0.3054
879.0,0.3008
880.0,0.2944
881.0,0.2894
882.0,0.2954
883.0,0.2969
884.0,0.2953
885.0,0.2975
886.0,0.2815
887.0,0.2861
888.0,0.2895
889.0,0.2945
890.0,0.2898
891.0,0.2904
892.0,0.2792
893.0,0.2678
894.0,0.2524
895.0,0.2312
896.0,0.2159
897.0,0.1772
898.0,0.1973
899.0,0.1409
900.0,0.2075
901.0,0.1476
902.0,0.1856
903.0,0.1829
904.0,0.2504
905.0,0.2392
906.0,0.2215
907.0,0.1664
908.0,0.1724
909.0,0.192
910.0,0.1596
911.0,0.1778
912.0,0.1865
913.0,0.1615
914.0,0.1622
915.0,0.175
916.0,0.1468
917.0,0.1961
918.0,0.1496
919.0,0.2032
920.0,0.2129
921.0,0.221
922.0,0.1901
923.0,0.2143
924.0,0.1928
925.0,0.1891
926.0,0.1899
927.0,0.2199
928.0,0.1403
929.0,0.1226
930.0,0.08786
931.0,0.08341
932.0,0.05186
933.0,0.03874
934.0,0.01473
935.0,0.0423
936.0,0.02194
937.0,0.02205
938.0,0.02867
939.0,0.08059
940.0,0.1033
941.0,0.07006
942.0,0.08515
943.0,0.05014
944.0,0.05876
945.0,0.07397
946.0,0.03002
947.0,0.07218
948.0,0.0523
949.0,0.1044
950.0,0.01888
951.0,0.1039
952.0,0.04625
953.0,0.06604
954.0,0.08827
955.0,0.06758
956.0,0.07303
957.0,0.0458
958.0,0.1117
959.0,0.0794
960.0,0.08902
961.0,0.1074
962.0,0.1012
963.0,0.1232
964.0,0.111
965.0,0.1226
966.0,0.1218
967.0,0.1203
968.0,0.1877
969.0,0.192
970.0,0.174
971.0,0.2109
972.0,0.1991
973.0,0.1616
974.0,0.1524
975.0,0.1621
976.0,0.1472
977.0,0.1814
978.0,0.1665
979.0,0.1777
980.0,0.1654
981.0,0.21
982.0,0.1964
983.0,0.1862
984.0,0.2218
985.0,0.1954
986.0,0.2292
987.0,0.2208
988.0,0.2207
989.0,0.2308
990.0,0.2192
991.0,0.231
992.0,0.2328
993.0,0.2237
994.0,0.2332
995.0,0.2335
996.0,0.2318
997.0,0.2324
998.0,0.2311
999.0,0.2304
1000.0,0.2279
1001.0,0.2318
1002.0,0.2215
1003.0,0.2275
1004.0,0.2208
1005.0,0.2142
1006.0,0.2219
1007.0,0.2269
1008.0,0.225
1009.0,0.223
1010.0,0.2217
1011.0,0.2259
1012.0,0.2232
1013.0,0.2255
1014.0,0.2239
1015.0,0.2224
1016.0,0.2213
1017.0,0.2217
1018.0,0.2213
1019.0,0.2151
1020.0,0.2199
1021.0,0.2199
1022.0,0.2176
1023.0,0.2199
1024.0,0.2155
1025.0,0.2202
1026.0,0.2189
1027.0,0.2185
1028.0,0.2179
1029.0,0.2151
1030.0,0.2172
1031.0,0.2161
1032.0,0.2156
1033.0,0.2123
1034.0,0.2124
1035.0,0.2131
1036.0,0.214
1037.0,0.2106
1038.0,0.2115
1039.0,0.2112
1040.0,0.2103
1041.0,0.2111
1042.0,0.2096
1043.0,0.2088
1044.0,0.2094
1045.0,0.2065
1046.0,0.2041
1047.0,0.2059
1048.0,0.2069
1049.0,0.206
1050.0,0.2049
1051.0,0.2045
1052.0,0.2035
1053.0,0.2017
1054.0,0.2019
1055.0,0.2018
1056.0,0.2008
1057.0,0.2
1058.0,0.1949
1059.0,0.1948
1060.0,0.1944
1061.0,0.194
1062.0,0.1948
1063.0,0.1927
1064.0,0.1951
1065.0,0.1931
1066.0,0.1897
1067.0,0.192
1068.0,0.1874
1069.0,0.182
1070.0,0.1877
1071.0,0.192
1072.0,0.1888
1073.0,0.1863
1074.0,0.1926
1075.0,0.1791
1076.0,0.1922
1077.0,0.1866
1078.0,0.1821
1079.0,0.1898
1080.0,0.1838
1081.0,0.1759
1082.0,0.1821
1083.0,0.1836
1084.0,0.1748
1085.0,0.1846
1086.0,0.1633
1087.0,0.1719
1088.0,0.1827
1089.0,0.1733
1090.0,0.1677
1091.0,0.1812
1092.0,0.1814
1093.0,0.144
1094.0,0.1647
1095.0,0.1506
1096.0,0.1415
1097.0,0.1773
1098.0,0.1378
1099.0,0.1452
1100.0,0.1313
1101.0,0.1343
1102.0,0.1256
1103.0,0.1225
1104.0,0.1229
1105.0,0.1411
1106.0,0.09289
1107.0,0.1312
1108.0,0.1023
1109.0,0.104
1110.0,0.1281
1111.0,0.07518
1112.0,0.1037
1113.0,0.05494
1114.0,0.06188
1115.0,0.05045
1116.0,0.03465
1117.0,0.008094
1118.0,0.039
1119.0,0.01498
1120.0,0.01822
1121.0,0.02638
1122.0,0.007866
1123.0,0.01664
1124.0,0.01398
1125.0,0.01933
1126.0,0.003811
1127.0,0.0221
1128.0,0.009738
1129.0,0.01065
1130.0,0.006399
1131.0,0.05217
1132.0,0.03884
1133.0,0.0192
1134.0,0.002861
1135.0,0.001208
1136.0,0.01428
1137.0,0.04908
1138.0,0.03354
1139.0,0.06267
1140.0,0.04745
1141.0,0.03204
1142.0,0.03907
1143.0,0.06112
1144.0,0.01601
1145.0,0.01849
1146.0,0.01988
1147.0,0.004189
1148.0,0.0521
1149.0,0.03814
1150.0,0.01836
1151.0,0.03329
1152.0,0.04512
1153.0,0.04737
1154.0,0.01825
1155.0,0.06521
1156.0,0.05607
1157.0,0.06843
1158.0,0.06747
1159.0,0.07557
1160.0,0.06232
1161.0,0.08419
1162.0,0.08382
1163.0,0.1271
1164.0,0.1041
1165.0,0.09323
1166.0,0.09674
1167.0,0.1077
1168.0,0.1078
1169.0,0.1117
1170.0,0.1257
1171.0,0.1225
1172.0,0.1276
1173.0,0.1256
1174.0,0.08
1175.0,0.1253
1176.0,0.1437
1177.0,0.1338
1178.0,0.09312
1179.0,0.1449
1180.0,0.1229
1181.0,0.1271
1182.0,0.07929
1183.0,0.1264
1184.0,0.1156
1185.0,0.1089
1186.0,0.138
1187.0,0.1286
1188.0,0.07908
1189.0,0.1194
1190.0,0.1355
1191.0,0.1229
1192.0,0.1379
1193.0,0.1303
1194.0,0.1355
1195.0,0.1243
1196.0,0.1176
1197.0,0.1372
1198.0,0.1238
1199.0,0.09735
1200.0,0.1285
1201.0,0.121
1202.0,0.1228
1203.0,0.1203
1204.0,0.1019
1205.0,0.1278
1206.0,0.1451
1207.0,0.1213
1208.0,0.1218
1209.0,0.1247
1210.0,0.1318
1211.0,0.1227
1212.0,0.1168
1213.0,0.1382
1214.0,0.1212
1215.0,0.1185
1216.0,0.1382
1217.0,0.1331
1218.0,0.1369
1219.0,0.1343
1220.0,0.1372
1221.0,0.1395
1222.0,0.1353
1223.0,0.1333
1224.0,0.1309
1225.0,0.1384
1226.0,0.1405
1227.0,0.1254
1228.0,0.1422
1229.0,0.1405
1230.0,0.1374
1231.0,0.144
1232.0,0.1431
1233.0,0.1345
1234.0,0.1447
1235.0,0.1432
1236.0,0.1447
1237.0,0.1412
1238.0,0.1443
1239.0,0.1424
1240.0,0.1431
1241.0,0.1415
1242.0,0.142
1243.0,0.1409
1244.0,0.1416
1245.0,0.1424
1246.0,0.1416
1247.0,0.1408
1248.0,0.1402
1249.0,0.1411
1250.0,0.1399
1251.0,0.1376
1252.0,0.1383
1253.0,0.1359
1254.0,0.1335
1255.0,0.1378
1256.0,0.1315
1257.0,0.1303
1258.0,0.1347
1259.0,0.126
1260.0,0.1271
1261.0,0.1154
1262.0,0.1095
1263.0,0.1096
1264.0,0.09593
1265.0,0.109
1266.0,0.1018
1267.0,0.1057
1268.0,0.09682
1269.0,0.04153
1270.0,0.1045
1271.0,0.1156
1272.0,0.1165
1273.0,0.1147
1274.0,0.1158
1275.0,0.1183
1276.0,0.1204
1277.0,0.1224
1278.0,0.1265
1279.0,0.1253
1280.0,0.1238
1281.0,0.119
1282.0,0.1161
1283.0,0.1248
1284.0,0.1275
1285.0,0.1286
1286.0,0.1311
1287.0,0.1276
1288.0,0.128
1289.0,0.1211
1290.0,0.1271
1291.0,0.1294
1292.0,0.1163
1293.0,0.1256
1294.0,0.1245
1295.0,0.1222
1296.0,0.1135
1297.0,0.1051
1298.0,0.1181
1299.0,0.1263
1300.0,0.09888
1301.0,0.1033
1302.0,0.1178
1303.0,0.09836
1304.0,0.07678
1305.0,0.1151
1306.0,0.1142
1307.0,0.08108
1308.0,0.09978
1309.0,0.1121
1310.0,0.07888
1311.0,0.09396
1312.0,0.09044
1313.0,0.08694
1314.0,0.07524
1315.0,0.0727
1316.0,0.09109
1317.0,0.08526
1318.0,0.09576
1319.0,0.0664
1320.0,0.06597
1321.0,0.07985
1322.0,0.07904
1323.0,0.05279
1324.0,0.06548
1325.0,0.08885
1326.0,0.07208
1327.0,0.06753
1328.0,0.05588
1329.0,0.03631
1330.0,0.05027
1331.0,0.02454
1332.0,0.02696
1333.0,0.0386
1334.0,0.0366
1335.0,0.052
1336.0,0.03768
1337.0,0.03245
1338.0,0.03471
1339.0,0.03533
1340.0,0.03612
1341.0,0.03111
1342.0,0.03323
1343.0,0.01635
1344.0,0.01039
1345.0,0.01453
1346.0,0.004448
1347.0,0.004087
1348.0,9.905e-05
1349.0,0.000445
1350.0,0.0005397
1351.0,5.294e-05
1352.0,4.53e-06
1353.0,1.201e-07
1354.0,7.095e-07
1355.0,1.766e-09
1356.0,5.799e-08
1357.0,8.743e-08
1358.0,2.127e-09
1359.0,2.116e-10
1360.0,8.498e-10
1361.0,8.23e-13
1362.0,2.246e-15
1363.0,1.042e-09
1364.0,4.382e-10
1365.0,7.837e-16
1366.0,4.675e-09
1367.0,2.09e-09
1368.0,6.051e-18
1369.0,1.617e-10
1370.0,7.63e-11
1371.0,4.25e-12
1372.0,1.154e-09
1373.0,3.235e-08
1374.0,2.337e-07
1375.0,3.585e-07
1376.0,6.62e-07
1377.0,2.726e-07
1378.0,2.849e-06
1379.0,1.192e-07
1380.0,1.071e-07
1381.0,2.409e-09
1382.0,9.734e-10
1383.0,1.387e-11
1384.0,1.713e-10
1385.0,1.176e-09
1386.0,7.969e-10
1387.0,1.556e-07
1388.0,4.135e-09
1389.0,1.023e-06
1390.0,8.016e-07
1391.0,5.241e-07
1392.0,3.394e-08
1393.0,2.36e-07
1394.0,4.771e-08
1395.0,2.931e-10
1396.0,1.075e-12
1397.0,7.489e-08
1398.0,2.79e-06
1399.0,1.893e-06
1400.0,4.576e-13
1401.0,1.912e-12
1402.0,1.848e-05
1403.0,1.747e-05
1404.0,4.57e-06
1405.0,1.218e-10
1406.0,7.563e-06
1407.0,1.26e-06
1408.0,6.798e-06
1409.0,1.25e-06
1410.0,1.84e-06
1411.0,1.635e-05
1412.0,3.078e-05
1413.0,0.000685
1414.0,1.62e-06
1415.0,6.014e-07
1416.0,0.002216
1417.0,0.0004096
1418.0,0.0003447
1419.0,4.778e-05
1420.0,0.0002071
1421.0,0.0002818
1422.0,0.002891
1423.0,0.0005126
1424.0,0.001099
1425.0,0.00135
1426.0,0.002049
1427.0,0.004763
1428.0,8.209e-05
1429.0,0.002896
