interpolation:linear
wavelength,value
280.0,8.597e-23
280.5,2.87e-21
281.0,1.549e-20
281.5,5.001e-19
282.0,5.228e-19
282.5,1.258e-18
283.0,3.933e-18
283.5,6.399e-18
284.0,1.054e-16
284.5,3.089e-16
285.0,5.863e-16
285.5,2.77e-15
286.0,1.108e-14
286.5,4.931e-14
287.0,1.411e-13
287.5,5.436e-13
288.0,1.894e-12
288.5,5.489e-12
289.0,1.427e-11
289.5,4.245e-11
290.0,1.172e-10
290.5,2.385e-10
291.0,5.117e-10
291.5,1.47e-09
292.0,2.985e-09
292.5,4.164e-09
293.0,8.869e-09
293.5,2.141e-08
294.0,3.339e-08
294.5,4.34e-08
295.0,7.318e-08
295.5,1.241e-07
296.0,2.356e-07
296.5,3.236e-07
297.0,4.309e-07
297.5,1.126e-06
298.0,1.731e-06
298.5,1.705e-06
299.0,3.677e-06
299.5,5.852e-06
300.0,6.268e-06
300.5,8.819e-06
301.0,1.518e-05
301.5,2.3e-05
302.0,1.913e-05
302.5,3.701e-05
303.0,6.611e-05
303.5,8.37e-05
304.0,8.059e-05
304.5,0.0001287
305.0,0.0002158
305.5,0.0002641
306.0,0.0002623
306.5,0.0003413
307.0,0.0005598
307.5,0.000822
308.0,0.000882
308.5,0.001095
309.0,0.001292
309.5,0.001756
310.0,0.001909
310.5,0.003215
311.0,0.004303
311.5,0.00427
312.0,0.004906
312.5,0.006544
313.0,0.007447
313.5,0.006913
314.0,0.009648
314.5,0.009899
315.0,0.01335
315.5,0.0104
316.0,0.01022
316.5,0.01625
317.0,0.02013
317.5,0.02034
318.0,0.01701
318.5,0.02412
319.0,0.03061
319.5,0.02239
320.0,0.02661
320.5,0.03815
321.0,0.03838
321.5,0.03725
322.0,0.03481
322.5,0.03048
323.0,0.03306
323.5,0.04505
324.0,0.05336
324.5,0.05216
325.0,0.04221
325.5,0.05818
326.0,0.07437
326.5,0.07812
327.0,0.07649
327.5,0.07224
328.0,0.06032
328.5,0.0685
329.0,0.08717
329.5,0.1008
330.0,0.1002
330.5,0.0765
331.0,0.07671
331.5,0.08074
332.0,0.09175
332.5,0.09287
333.0,0.09139
333.5,0.07969
334.0,0.08116
334.5,0.0977
335.0,0.0941
335.5,0.111
336.0,0.07681
336.5,0.08804
337.0,0.07097
337.5,0.08772
338.0,0.0887
338.5,0.1038
339.0,0.103
339.5,0.099
340.0,0.1149
340.5,0.1039
341.0,0.1025
341.5,0.09451
342.0,0.1131
342.5,0.106
343.0,0.1163
343.5,0.1094
344.0,0.07998
344.5,0.08145
345.0,0.1084
345.5,0.1109
346.0,0.09447
346.5,0.1071
347.0,0.1148
347.5,0.09279
348.0,0.1061
348.5,0.1063
349.0,0.09875
349.5,0.09781
350.0,0.1211
350.5,0.1278
351.0,0.114
351.5,0.1105
352.0,0.119
352.5,0.09309
353.0,0.1175
353.5,0.1258
354.0,0.1307
354.5,0.1326
355.0,0.1321
355.5,0.1195
356.0,0.1252
356.5,0.1069
357.0,0.08838
357.5,0.1083
358.0,0.08587
358.5,0.07342
359.0,0.1027
359.5,0.1308
360.0,0.1388
360.5,0.111
361.0,0.1013
361.5,0.1169
362.0,0.1012
362.5,0.1402
363.0,0.1261
363.5,0.1163
364.0,0.1423
364.5,0.1217
365.0,0.1241
365.5,0.1558
366.0,0.1653
366.5,0.1555
367.0,0.1515
367.5,0.1573
368.0,0.1378
368.5,0.1391
369.0,0.1504
369.5,0.1604
370.0,0.1712
370.5,0.133
371.0,0.1422
371.5,0.1781
372.0,0.1183
372.5,0.1419
373.0,0.1445
373.5,0.0941
374.0,0.1368
374.5,0.1134
375.0,0.1104
375.5,0.1649
376.0,0.1368
376.5,0.1418
377.0,0.1503
377.5,0.176
378.0,0.1908
378.5,0.1805
379.0,0.149
379.5,0.1362
380.0,0.1417
380.5,0.1718
381.0,0.1723
381.5,0.1368
382.0,0.1216
382.5,0.1038
383.0,0.09623
383.5,0.09278
384.0,0.1024
384.5,0.1508
385.0,0.1497
385.5,0.1396
386.0,0.1196
386.5,0.1573
387.0,0.1308
387.5,0.1471
388.0,0.1359
388.5,0.1345
389.0,0.1453
389.5,0.1761
390.0,0.1769
390.5,0.163
391.0,0.192
391.5,0.196
392.0,0.1652
392.5,0.1481
393.0,0.08249
393.5,0.06002
394.0,0.1222
394.5,0.1556
395.0,0.19
395.5,0.1931
396.0,0.1676
396.5,0.09809
397.0,0.07369
397.5,0.15
398.0,0.2101
398.5,0.2174
399.0,0.2358
399.5,0.2352
400.0,0.2443
401.0,0.2453
402.0,0.2593
403.0,0.2469
404.0,0.2435
405.0,0.2438
406.0,0.2404
407.0,0.237
408.0,0.2465
409.0,0.2642
410.0,0.2313
411.0,0.251
412.0,0.2703
413.0,0.2638
414.0,0.2676
415.0,0.2688
416.0,0.2741
417.0,0.2677
418.0,0.2632
419.0,0.2671
420.0,0.2663
421.0,0.279
422.0,0.2656
423.0,0.2598
424.0,0.275
425.0,0.275
426.0,0.2686
427.0,0.2639
428.0,0.2574
429.0,0.2445
430.0,0.2143
431.0,0.2125
432.0,0.2749
433.0,0.2768
434.0,0.2573
435.0,0.2689
436.0,0.3037
437.0,0.3003
438.0,0.2739
439.0,0.2829
440.0,0.2924
441.0,0.3035
442.0,0.3258
443.0,0.3173
444.0,0.3248
445.0,0.3179
446.0,0.3043
447.0,0.3299
448.0,0.3347
449.0,0.3371
450.0,0.347
451.0,0.3602
452.0,0.3475
453.0,0.3273
454.0,0.3425
455.0,0.3447
456.0,0.3532
457.0,0.3592
458.0,0.3466
459.0,0.3451
460.0,0.3458
461.0,0.354
462.0,0.3574
463.0,0.3551
464.0,0.3503
465.0,0.3469
466.0,0.351
467.0,0.3444
468.0,0.3485
469.0,0.3504
470.0,0.3392
471.0,0.339
472.0,0.3573
473.0,0.3527
474.0,0.3528
475.0,0.3551
476.0,0.3436
477.0,0.3439
478.0,0.3537
479.0,0.352
480.0,0.3532
481.0,0.3605
482.0,0.3633
483.0,0.3599
484.0,0.3532
485.0,0.3372
486.0,0.2955
487.0,0.3104
488.0,0.3405
489.0,0.3414
490.0,0.3596
491.0,0.3539
492.0,0.3344
493.0,0.3455
494.0,0.3492
495.0,0.3524
496.0,0.3546
497.0,0.3601
498.0,0.3431
499.0,0.3472
500.0,0.3366
501.0,0.3297
502.0,0.3238
503.0,0.3358
504.0,0.3239
505.0,0.3382
506.0,0.349
507.0,0.3324
508.0,0.3231
509.0,0.333
510.0,0.332
511.0,0.3417
512.0,0.3458
513.0,0.3274
514.0,0.3254
515.0,0.3222
516.0,0.3213
517.0,0.2856
518.0,0.3002
519.0,0.3148
520.0,0.3261
521.0,0.3291
522.0,0.329
523.0,0.3229
524.0,0.3338
525.0,0.3367
526.0,0.3213
527.0,0.302
528.0,0.3188
529.0,0.3355
530.0,0.3303
531.0,0.3349
532.0,0.3232
533.0,0.3137
534.0,0.3233
535.0,0.3308
536.0,0.3342
537.0,0.3215
538.0,0.3274
539.0,0.3245
540.0,0.3109
541.0,0.3119
542.0,0.3211
543.0,0.3186
544.0,0.3232
545.0,0.3224
546.0,0.3229
547.0,0.3235
548.0,0.3201
549.0,0.3213
550.0,0.3252
551.0,0.3214
552.0,0.3236
553.0,0.3177
554.0,0.3252
555.0,0.3256
556.0,0.3212
557.0,0.3108
558.0,0.3079
559.0,0.3016
560.0,0.3049
561.0,0.3083
562.0,0.3054
563.0,0.3129
564.0,0.3038
565.0,0.3006
566.0,0.2956
567.0,0.3005
568.0,0.2959
569.0,0.2855
570.0,0.2858
571.0,0.2849
572.0,0.2894
573.0,0.292
574.0,0.2906
575.0,0.2843
576.0,0.2818
577.0,0.2852
578.0,0.2819
579.0,0.2847
580.0,0.2927
581.0,0.2963
582.0,0.3036
583.0,0.3058
584.0,0.3095
585.0,0.3025
586.0,0.2964
587.0,0.3018
588.0,0.2901
589.0,0.2487
590.0,0.2607
591.0,0.281
592.0,0.2744
593.0,0.2823
594.0,0.2789
595.0,0.2686
596.0,0.2863
597.0,0.2812
598.0,0.2827
599.0,0.2838
600.0,0.286
601.0,0.285
602.0,0.2833
603.0,0.2887
604.0,0.2938
605.0,0.2928
606.0,0.2923
607.0,0.2961
608.0,0.2936
609.0,0.2948
610.0,0.2935
611.0,0.2955
612.0,0.2952
613.0,0.2919
614.0,0.2886
615.0,0.2956
616.0,0.2864
617.0,0.2862
618.0,0.2977
619.0,0.2949
620.0,0.2968
621.0,0.2965
622.0,0.2926
623.0,0.2878
624.0,0.2833
625.0,0.2826
626.0,0.2866
627.0,0.288
628.0,0.2488
629.0,0.2741
630.0,0.267
631.0,0.28
632.0,0.278
633.0,0.2893
634.0,0.2888
635.0,0.2945
636.0,0.2919
637.0,0.2978
638.0,0.3023
639.0,0.2997
640.0,0.2979
641.0,0.2984
642.0,0.298
643.0,0.3021
644.0,0.3021
645.0,0.3021
646.0,0.2926
647.0,0.2833
648.0,0.2842
649.0,0.2776
650.0,0.2865
651.0,0.3001
652.0,0.2806
653.0,0.2967
654.0,0.2939
655.0,0.2794
656.0,0.2501
657.0,0.2574
658.0,0.2909
659.0,0.2939
660.0,0.2957
661.0,0.2982
662.0,0.2976
663.0,0.2922
664.0,0.2977
665.0,0.2995
666.0,0.3003
667.0,0.3008
668.0,0.3019
669.0,0.3071
670.0,0.3061
671.0,0.3065
672.0,0.3042
673.0,0.3092
674.0,0.3084
675.0,0.3059
676.0,0.3084
677.0,0.3056
678.0,0.3068
679.0,0.3021
680.0,0.3047
681.0,0.3028
682.0,0.3025
683.0,0.302
684.0,0.3005
685.0,0.3034
686.0,0.3012
687.0,0.1206
688.0,0.1727
689.0,0.1745
690.0,0.1954
691.0,0.221
692.0,0.2422
693.0,0.2398
694.0,0.2405
695.0,0.2612
696.0,0.2624
697.0,0.2905
698.0,0.2857
699.0,0.2704
700.0,0.2667
701.0,0.2603
702.0,0.2655
703.0,0.2672
704.0,0.2808
705.0,0.2811
706.0,0.2827
707.0,0.2838
708.0,0.2842
709.0,0.2882
710.0,0.2862
711.0,0.2872
712.0,0.2881
713.0,0.2834
714.0,0.2851
715.0,0.2725
716.0,0.2718
717.0,0.2057
718.0,0.1871
719.0,0.1691
720.0,0.1739
721.0,0.2083
722.0,0.2565
723.0,0.23
724.0,0.1961
725.0,0.1898
726.0,0.1993
727.0,0.2097
728.0,0.188
729.0,0.2052
730.0,0.2141
731.0,0.2034
732.0,0.2286
733.0,0.2517
734.0,0.2612
735.0,0.2539
736.0,0.2528
737.0,0.2541
738.0,0.2665
739.0,0.2616
740.0,0.2709
741.0,0.2697
742.0,0.2716
743.0,0.279
744.0,0.2792
745.0,0.2802
746.0,0.2814
747.0,0.2823
748.0,0.2818
749.0,0.2787
750.0,0.2786
751.0,0.2758
752.0,0.2771
753.0,0.2787
754.0,0.2793
755.0,0.2776
756.0,0.2777
757.0,0.278
758.0,0.2744
759.0,0.263
760.0,0.006215
761.0,0.002173
762.0,0.06019
763.0,0.01378
764.0,0.03197
765.0,0.05996
766.0,0.09933
767.0,0.1608
768.0,0.2216
769.0,0.2354
770.0,0.2541
771.0,0.2611
772.0,0.2632
773.0,0.2654
774.0,0.2645
775.0,0.2627
776.0,0.2661
777.0,0.2626
778.0,0.261
779.0,0.2612
780.0,0.2598
781.0,0.2602
782.0,0.2619
783.0,0.2575
784.0,0.2589
785.0,0.2566
786.0,0.2591
787.0,0.2502
788.0,0.2451
789.0,0.245
790.0,0.233
791.0,0.2406
792.0,0.2398
793.0,0.2353
794.0,0.2449
795.0,0.2475
796.0,0.2319
797.0,0.2314
798.0,0.2462
799.0,0.2432
800.0,0.2372
801.0,0.2344
802.0,0.2335
803.0,0.2306
804.0,0.232
805.0,0.2336
806.0,0.2443
807.0,0.2405
808.0,0.241
809.0,0.2333
810.0,0.2296
811.0,0.2265
812.0,0.2138
813.0,0.2077
814.0,0.1694
815.0,0.1696
816.0,0.1558
817.0,0.1591
818.0,0.1501
819.0,0.179
820.0,0.1649
821.0,0.2105
822.0,0.2016
823.0,0.1117
824.0,0.1887
825.0,0.2072
826.0,0.1932
827.0,0.21
828.0,0.1608
829.0,0.1933
830.0,0.1897
831.0,0.1902
832.0,0.1813
833.0,0.2005
834.0,0.1885
835.0,0.2201
836.0,0.2013
837.0,0.2207
838.0,0.2091
839.0,0.2175
840.0,0.2235
841.0,0.2183
842.0,0.2219
843.0,0.2251
844.0,0.2202
845.0,0.2299
846.0,0.2295
847.0,0.2262
848.0,0.2234
849.0,0.217
850.0,0.208
851.0,0.2187
852.0,0.218
853.0,0.211
854.0,0.1812
855.0,0.2005
856.0,0.2185
857.0,0.2243
858.0,0.2222
859.0,0.2231
860.0,0.224
861.0,0.2226
862.0,0.2263
863.0,0.2317
864.0,0.2202
865.0,0.2184
866.0,0.1964
867.0,0.205
868.0,0.2231
869.0,0.2186
870.0,0.2248
871.0,0.2218
872.0,0.2211
873.0,0.2206
874.0,0.218
875.0,0.2136
876.0,0.2157
877.0,0.218
878.0,0.2201
879.0,0.2168
880.0,0.2121
881.0,0.2082
882.0,0.2124
883.0,0.2139
884.0,0.2126
885.0,0.2142
886.0,0.2016
887.0,0.2057
888.0,0.2077
889.0,0.2121
890.0,0.2077
891.0,0.2087
892.0,0.1992
893.0,0.1899
894.0,0.176
895.0,0.1578
896.0,0.1466
897.0,0.1168
898.0,0.1315
899.0,0.09025
900.0,0.1407
901.0,0.09458
902.0,0.1236
903.0,0.12
904.0,0.1743
905.0,0.1656
906.0,0.1522
907.0,0.1081
908.0,0.1138
909.0,0.1285
910.0,0.1031
911.0,0.1188
912.0,0.1239
913.0,0.104
914.0,0.1055
915.0,0.1129
916.0,0.09453
917.0,0.1302
918.0,0.09586
919.0,0.1365
920.0,0.1471
921.0,0.1518
922.0,0.1278
923.0,0.1477
924.0,0.1281
925.0,0.1261
926.0,0.1257
927.0,0.1483
928.0,0.08663
929.0,0.07366
930.0,0.04916
931.0,0.0461
932.0,0.02576
933.0,0.01822
934.0,0.005374
935.0,0.0206
936.0,0.00946
937.0,0.009565
938.0,0.01284
939.0,0.04441
940.0,0.05965
941.0,0.0376
942.0,0.04688
943.0,0.02558
944.0,0.03243
945.0,0.04045
946.0,0.01396
947.0,0.03872
948.0,0.02789
949.0,0.05934
950.0,0.008142
951.0,0.05883
952.0,0.0234
953.0,0.03558
954.0,0.05004
955.0,0.03678
956.0,0.04401
957.0,0.0232
958.0,0.06868
959.0,0.04548
960.0,0.05112
961.0,0.06465
962.0,0.06104
963.0,0.07707
964.0,0.06881
965.0,0.07604
966.0,0.07587
967.0,0.07432
968.0,0.1286
969.0,0.1291
970.0,0.1165
971.0,0.1464
972.0,0.1368
973.0,0.1062
974.0,0.1002
975.0,0.1076
976.0,0.09472
977.0,0.124
978.0,0.111
979.0,0.1195
980.0,0.1109
981.0,0.1458
982.0,0.1346
983.0,0.1268
984.0,0.1568
985.0,0.1336
986.0,0.1638
987.0,0.1566
988.0,0.1566
989.0,0.1661
990.0,0.1555
991.0,0.1661
992.0,0.1675
993.0,0.1595
994.0,0.168
995.0,0.1686
996.0,0.1671
997.0,0.1677
998.0,0.1666
999.0,0.1662
1000.0,0.1639
1001.0,0.1672
1002.0,0.1577
1003.0,0.164
1004.0,0.1586
1005.0,0.1546
1006.0,0.1598
1007.0,0.1636
1008.0,0.1619
1009.0,0.1601
1010.0,0.1589
1011.0,0.1629
1012.0,0.1606
1013.0,0.1628
1014.0,0.1617
1015.0,0.1605
1016.0,0.1596
1017.0,0.1598
1018.0,0.1599
1019.0,0.1545
1020.0,0.1587
1021.0,0.1588
1022.0,0.1569
1023.0,0.1585
1024.0,0.1545
1025.0,0.159
1026.0,0.1578
1027.0,0.1576
1028.0,0.1571
1029.0,0.155
1030.0,0.1568
1031.0,0.1559
1032.0,0.1556
1033.0,0.1533
1034.0,0.1533
1035.0,0.1538
1036.0,0.1544
1037.0,0.152
1038.0,0.1525
1039.0,0.1523
1040.0,0.1517
1041.0,0.1521
1042.0,0.151
1043.0,0.1504
1044.0,0.1508
1045.0,0.1487
1046.0,0.1469
1047.0,0.1481
1048.0,0.1487
1049.0,0.148
1050.0,0.1472
1051.0,0.1468
1052.0,0.146
1053.0,0.1446
1054.0,0.1446
1055.0,0.1444
1056.0,0.1436
1057.0,0.1429
1058.0,0.1391
1059.0,0.1389
1060.0,0.1385
1061.0,0.1382
1062.0,0.1386
1063.0,0.137
1064.0,0.1387
1065.0,0.137
1066.0,0.1348
1067.0,0.1364
1068.0,0.1329
1069.0,0.1293
1070.0,0.1332
1071.0,0.1369
1072.0,0.1341
1073.0,0.1324
1074.0,0.1377
1075.0,0.1265
1076.0,0.1374
1077.0,0.1325
1078.0,0.1287
1079.0,0.136
1080.0,0.1304
1081.0,0.1239
1082.0,0.1298
1083.0,0.1313
1084.0,0.1228
1085.0,0.1311
1086.0,0.1139
1087.0,0.1212
1088.0,0.1305
1089.0,0.1218
1090.0,0.1173
1091.0,0.1289
1092.0,0.1293
1093.0,0.09859
1094.0,0.1169
1095.0,0.1028
1096.0,0.09566
1097.0,0.1264
1098.0,0.09231
1099.0,0.09778
1100.0,0.08707
1101.0,0.08979
1102.0,0.08271
1103.0,0.0798
1104.0,0.0803
1105.0,0.09453
1106.0,0.05669
1107.0,0.08704
1108.0,0.06444
1109.0,0.06568
1110.0,0.08375
1111.0,0.04439
1112.0,0.06569
1113.0,0.0308
1114.0,0.0346
1115.0,0.02762
1116.0,0.01716
1117.0,0.003041
1118.0,0.01951
1119.0,0.006288
1120.0,0.00736
1121.0,0.01121
1122.0,0.002588
1123.0,0.006747
1124.0,0.00565
1125.0,0.008197
1126.0,0.001059
1127.0,0.009431
1128.0,0.003338
1129.0,0.003695
1130.0,0.002252
1131.0,0.02611
1132.0,0.01866
1133.0,0.007708
1134.0,0.0007951
1135.0,0.0003697
1136.0,0.005248
1137.0,0.02399
1138.0,0.01586
1139.0,0.0349
1140.0,0.0247
1141.0,0.01525
1142.0,0.01933
1143.0,0.03275
1144.0,0.007031
1145.0,0.007337
1146.0,0.007884
1147.0,0.001149
1148.0,0.02728
1149.0,0.01884
1150.0,0.008674
1151.0,0.01578
1152.0,0.02291
1153.0,0.02534
1154.0,0.007691
1155.0,0.03633
1156.0,0.03025
1157.0,0.03985
1158.0,0.03921
1159.0,0.0445
1160.0,0.0367
1161.0,0.05249
1162.0,0.05182
1163.0,0.08485
1164.0,0.06758
1165.0,0.05861
1166.0,0.06273
1167.0,0.07077
1168.0,0.0706
1169.0,0.07344
1170.0,0.0846
1171.0,0.08248
1172.0,0.08741
1173.0,0.08452
1174.0,0.05038
1175.0,0.08586
1176.0,0.1013
1177.0,0.09241
1178.0,0.06153
1179.0,0.102
1180.0,0.08367
1181.0,0.08653
1182.0,0.05045
1183.0,0.08663
1184.0,0.07792
1185.0,0.07223
1186.0,0.0957
1187.0,0.0878
1188.0,0.04939
1189.0,0.08139
1190.0,0.09445
1191.0,0.08281
1192.0,0.09644
1193.0,0.09006
1194.0,0.09441
1195.0,0.08463
1196.0,0.07911
1197.0,0.09611
1198.0,0.08629
1199.0,0.06417
1200.0,0.08899
1201.0,0.08222
1202.0,0.08509
1203.0,0.08206
1204.0,0.06828
1205.0,0.08943
1206.0,0.1033
1207.0,0.08334
1208.0,0.08488
1209.0,0.08692
1210.0,0.09279
1211.0,0.08525
1212.0,0.07856
1213.0,0.09703
1214.0,0.08236
1215.0,0.08046
1216.0,0.09749
1217.0,0.09317
1218.0,0.09651
1219.0,0.0941
1220.0,0.09682
1221.0,0.0991
1222.0,0.09575
1223.0,0.09397
1224.0,0.09123
1225.0,0.09795
1226.0,0.1002
1227.0,0.08723
1228.0,0.1018
1229.0,0.1003
1230.0,0.0976
1231.0,0.1037
1232.0,0.1029
1233.0,0.09498
1234.0,0.1046
1235.0,0.1032
1236.0,0.1046
1237.0,0.1014
1238.0,0.1042
1239.0,0.1028
1240.0,0.1035
1241.0,0.1018
1242.0,0.1026
1243.0,0.1019
1244.0,0.1022
1245.0,0.1029
1246.0,0.1023
1247.0,0.1016
1248.0,0.1009
1249.0,0.1018
1250.0,0.1008
1251.0,0.09868
1252.0,0.09969
1253.0,0.0971
1254.0,0.09483
1255.0,0.09912
1256.0,0.09309
1257.0,0.09192
1258.0,0.09621
1259.0,0.08781
1260.0,0.08886
1261.0,0.07803
1262.0,0.07276
1263.0,0.07275
1264.0,0.06086
1265.0,0.07239
1266.0,0.06585
1267.0,0.06965
1268.0,0.06193
1269.0,0.01953
1270.0,0.06835
1271.0,0.07859
1272.0,0.07938
1273.0,0.07788
1274.0,0.07905
1275.0,0.08122
1276.0,0.08319
1277.0,0.08535
1278.0,0.08926
1279.0,0.08843
1280.0,0.0874
1281.0,0.08452
1282.0,0.08331
1283.0,0.08933
1284.0,0.09115
1285.0,0.09208
1286.0,0.09433
1287.0,0.09099
1288.0,0.09162
1289.0,0.08498
1290.0,0.09095
1291.0,0.09292
1292.0,0.0808
1293.0,0.08965
1294.0,0.08877
1295.0,0.08595
1296.0,0.07832
1297.0,0.07154
1298.0,0.08281
1299.0,0.09029
1300.0,0.06711
1301.0,0.07056
1302.0,0.08283
1303.0,0.06698
1304.0,0.04924
1305.0,0.08068
1306.0,0.07951
1307.0,0.05314
1308.0,0.06848
1309.0,0.07723
1310.0,0.05122
1311.0,0.0637
1312.0,0.06114
1313.0,0.05754
1314.0,0.04847
1315.0,0.0463
1316.0,0.06112
1317.0,0.05655
1318.0,0.06505
1319.0,0.04149
1320.0,0.04174
1321.0,0.05212
1322.0,0.05077
1323.0,0.03102
1324.0,0.04115
1325.0,0.05883
1326.0,0.04604
1327.0,0.04251
1328.0,0.03397
1329.0,0.01972
1330.0,0.02897
1331.0,0.01204
1332.0,0.01368
1333.0,0.02005
1334.0,0.02103
1335.0,0.03
1336.0,0.0203
1337.0,0.01751
1338.0,0.01846
1339.0,0.01896
1340.0,0.02011
1341.0,0.01562
1342.0,0.01703
1343.0,0.00671
1344.0,0.004462
1345.0,0.00585
1346.0,0.001262
1347.0,0.001062
1348.0,1.638e-05
1349.0,7.519e-05
1350.0,9.159e-05
1351.0,7.417e-06
1352.0,1.046e-06
1353.0,5.013e-08
1354.0,1.833e-07
1355.0,1.361e-09
1356.0,2.431e-08
1357.0,3.687e-08
1358.0,1.598e-09
1359.0,2.01e-10
1360.0,7.268e-10
1361.0,8.126e-13
1362.0,2.223e-15
1363.0,9.768e-10
1364.0,4.033e-10
1365.0,7.761e-16
1366.0,4.233e-09
1367.0,1.729e-09
1368.0,5.993e-18
1369.0,1.486e-10
1370.0,7.318e-11
1371.0,4.148e-12
1372.0,9.378e-10
1373.0,1.898e-08
1374.0,8.965e-08
1375.0,1.606e-07
1376.0,1.574e-07
1377.0,7.072e-08
1378.0,6.822e-07
1379.0,3.002e-08
1380.0,4.016e-08
1381.0,1.042e-09
1382.0,8.217e-10
1383.0,1.228e-11
1384.0,1.61e-10
1385.0,7.728e-10
1386.0,7.242e-10
1387.0,8.796e-08
1388.0,1.763e-09
1389.0,3.08e-07
1390.0,2.611e-07
1391.0,1.743e-07
1392.0,1.142e-08
1393.0,6.248e-08
1394.0,2.997e-08
1395.0,2.193e-10
1396.0,1.058e-12
1397.0,2.39e-08
1398.0,7.116e-07
1399.0,4.555e-07
1400.0,4.523e-13
1401.0,1.877e-12
1402.0,2.545e-06
1403.0,2.395e-06
1404.0,6.348e-07
1405.0,1.037e-10
1406.0,1.337e-06
1407.0,1.885e-07
1408.0,1.126e-06
1409.0,3.306e-07
1410.0,3.171e-07
1411.0,2.208e-06
1412.0,4.161e-06
1413.0,0.0001042
1414.0,2.637e-07
1415.0,1.135e-07
1416.0,0.0005494
1417.0,8.417e-05
1418.0,5.017e-05
