interpolation:linear
wavelength,value
280.0,2.693e-21
280.5,8.462e-20
281.0,4.469e-19
281.5,3.461e-19
282.0,1.018e-18
282.5,2.688e-18
283.0,8.72e-18
283.5,1.429e-17
284.0,2.337e-16
284.5,6.755e-16
285.0,1.525e-15
285.5,7.382e-15
286.0,2.95e-14
286.5,1.3e-13
287.0,3.677e-13
287.5,1.39e-12
288.0,3.73e-12
288.5,1.235e-11
289.0,3.495e-11
289.5,1.104e-10
290.0,3.149e-10
290.5,6.542e-10
291.0,1.429e-09
291.5,4.171e-09
292.0,8.928e-09
292.5,1.34e-08
293.0,3.129e-08
293.5,8.545e-08
294.0,1.45e-07
294.5,1.876e-07
295.0,3.442e-07
295.5,8.924e-07
296.0,1.788e-06
296.5,2.609e-06
297.0,3.667e-06
297.5,1.047e-05
298.0,1.751e-05
298.5,1.851e-05
299.0,4.295e-05
299.5,7.846e-05
300.0,9.153e-05
300.5,0.0001415
301.0,0.000288
301.5,0.000522
302.0,0.0004832
302.5,0.0009557
303.0,0.001744
303.5,0.002219
304.0,0.0021
304.5,0.003191
305.0,0.004954
305.5,0.005757
306.0,0.005603
306.5,0.007039
307.0,0.01064
307.5,0.01439
308.0,0.01524
308.5,0.01814
309.0,0.01791
309.5,0.02067
310.0,0.02086
310.5,0.03385
311.0,0.04263
311.5,0.04122
312.0,0.0415
312.5,0.05073
313.0,0.05516
313.5,0.05346
314.0,0.06719
314.5,0.05998
315.0,0.07892
315.5,0.06584
316.0,0.0578
316.5,0.08336
317.0,0.1035
317.5,0.1076
318.0,0.08421
318.5,0.1051
319.0,0.1251
319.5,0.1016
320.0,0.1227
320.5,0.1543
321.0,0.138
321.5,0.1324
322.0,0.1405
322.5,0.1223
323.0,0.1222
323.5,0.1505
324.0,0.1758
324.5,0.1783
325.0,0.1539
325.5,0.1984
326.0,0.2428
326.5,0.2434
327.0,0.2426
327.5,0.2342
328.0,0.2083
328.5,0.2194
329.0,0.263
329.5,0.2987
330.0,0.3013
330.5,0.241
331.0,0.2455
331.5,0.2498
332.0,0.2702
332.5,0.2674
333.0,0.2666
333.5,0.2412
334.0,0.2471
334.5,0.2854
335.0,0.2684
335.5,0.3136
336.0,0.217
336.5,0.2541
337.0,0.2085
337.5,0.2594
338.0,0.2534
338.5,0.2926
339.0,0.2897
339.5,0.2788
340.0,0.3277
340.5,0.2955
341.0,0.2882
341.5,0.2647
342.0,0.3165
342.5,0.2962
343.0,0.3258
343.5,0.3068
344.0,0.2268
344.5,0.2291
345.0,0.3033
345.5,0.3098
346.0,0.2634
346.5,0.2984
347.0,0.3204
347.5,0.2591
348.0,0.2955
348.5,0.2954
349.0,0.2742
349.5,0.2716
350.0,0.336
350.5,0.3545
351.0,0.3167
351.5,0.3079
352.0,0.3308
352.5,0.2583
353.0,0.3254
353.5,0.3481
354.0,0.3614
354.5,0.3666
355.0,0.3655
355.5,0.3303
356.0,0.3457
356.5,0.2952
357.0,0.244
357.5,0.2988
358.0,0.2368
358.5,0.2024
359.0,0.2832
359.5,0.361
360.0,0.3828
360.5,0.306
361.0,0.2791
361.5,0.3215
362.0,0.2781
362.5,0.3851
363.0,0.346
363.5,0.3189
364.0,0.3901
364.5,0.3336
365.0,0.3398
365.5,0.4266
366.0,0.4522
366.5,0.425
367.0,0.414
367.5,0.4298
368.0,0.3762
368.5,0.3798
369.0,0.4103
369.5,0.4374
370.0,0.4665
370.5,0.3622
371.0,0.3871
371.5,0.4844
372.0,0.3216
372.5,0.3857
373.0,0.3925
373.5,0.2555
374.0,0.3713
374.5,0.3076
375.0,0.2991
375.5,0.4467
376.0,0.3704
376.5,0.3839
377.0,0.4066
377.5,0.4758
378.0,0.5159
378.5,0.4878
379.0,0.4026
379.5,0.3678
380.0,0.3825
380.5,0.4635
381.0,0.4646
381.5,0.3685
382.0,0.3274
382.5,0.2792
383.0,0.2586
383.5,0.2491
384.0,0.2749
384.5,0.4045
385.0,0.4012
385.5,0.3738
386.0,0.3202
386.5,0.4208
387.0,0.3498
387.5,0.3929
388.0,0.3629
388.5,0.3589
389.0,0.3875
389.5,0.4694
390.0,0.4713
390.5,0.4338
391.0,0.5108
391.5,0.5212
392.0,0.4391
392.5,0.3932
393.0,0.2189
393.5,0.1591
394.0,0.3239
394.5,0.412
395.0,0.5028
395.5,0.5109
396.0,0.4431
396.5,0.2591
397.0,0.1945
397.5,0.3957
398.0,0.5542
398.5,0.573
399.0,0.6207
399.5,0.6188
400.0,0.6427
401.0,0.6514
402.0,0.6876
403.0,0.6536
404.0,0.6438
405.0,0.644
406.0,0.6339
407.0,0.624
408.0,0.6485
409.0,0.6944
410.0,0.6071
411.0,0.6579
412.0,0.707
413.0,0.6897
414.0,0.6984
415.0,0.7006
416.0,0.7132
417.0,0.6959
418.0,0.6833
419.0,0.6926
420.0,0.6898
421.0,0.7219
422.0,0.6864
423.0,0.6707
424.0,0.7096
425.0,0.7086
426.0,0.6906
427.0,0.6779
428.0,0.6605
429.0,0.6259
430.0,0.548
431.0,0.5432
432.0,0.7017
433.0,0.7058
434.0,0.6555
435.0,0.6847
436.0,0.7718
437.0,0.7618
438.0,0.6939
439.0,0.7176
440.0,0.7407
441.0,0.7678
442.0,0.8236
443.0,0.8022
444.0,0.8199
445.0,0.8022
446.0,0.766
447.0,0.8284
448.0,0.8413
449.0,0.845
450.0,0.8689
451.0,0.9013
452.0,0.8685
453.0,0.8171
454.0,0.8533
455.0,0.8586
456.0,0.8792
457.0,0.8939
458.0,0.8634
459.0,0.8591
460.0,0.8614
461.0,0.8813
462.0,0.8883
463.0,0.8823
464.0,0.868
465.0,0.8573
466.0,0.8659
467.0,0.85
468.0,0.8601
469.0,0.8647
470.0,0.8371
471.0,0.8361
472.0,0.881
473.0,0.8696
474.0,0.8707
475.0,0.878
476.0,0.8516
477.0,0.8538
478.0,0.8776
479.0,0.8725
480.0,0.8743
481.0,0.8909
482.0,0.8958
483.0,0.8852
484.0,0.8673
485.0,0.8265
486.0,0.7226
487.0,0.7575
488.0,0.8311
489.0,0.8336
490.0,0.8771
491.0,0.8622
492.0,0.8142
493.0,0.8409
494.0,0.8494
495.0,0.8567
496.0,0.862
497.0,0.8753
498.0,0.8344
499.0,0.845
500.0,0.8203
501.0,0.8051
502.0,0.7935
503.0,0.8255
504.0,0.8036
505.0,0.8332
506.0,0.8601
507.0,0.8185
508.0,0.7933
509.0,0.8157
510.0,0.8116
511.0,0.8336
512.0,0.8427
513.0,0.7977
514.0,0.7923
515.0,0.7844
516.0,0.7825
517.0,0.6953
518.0,0.731
519.0,0.7667
520.0,0.7946
521.0,0.8021
522.0,0.8027
523.0,0.7883
524.0,0.8163
525.0,0.8257
526.0,0.7887
527.0,0.743
528.0,0.7857
529.0,0.828
530.0,0.8161
531.0,0.8281
532.0,0.7996
533.0,0.7762
534.0,0.7992
535.0,0.8168
536.0,0.8244
537.0,0.792
538.0,0.806
539.0,0.7992
540.0,0.7662
541.0,0.771
542.0,0.795
543.0,0.7869
544.0,0.8003
545.0,0.7979
546.0,0.8012
547.0,0.801
548.0,0.7915
549.0,0.794
550.0,0.8035
551.0,0.7938
552.0,0.7993
553.0,0.7849
554.0,0.8037
555.0,0.8052
556.0,0.7947
557.0,0.7699
558.0,0.764
559.0,0.7496
560.0,0.7589
561.0,0.7685
562.0,0.7628
563.0,0.7835
564.0,0.7619
565.0,0.7552
566.0,0.744
567.0,0.7579
568.0,0.7507
569.0,0.7318
570.0,0.7318
571.0,0.7276
572.0,0.7444
573.0,0.7523
574.0,0.7498
575.0,0.7355
576.0,0.7288
577.0,0.7369
578.0,0.7261
579.0,0.7294
580.0,0.744
581.0,0.7484
582.0,0.763
583.0,0.7653
584.0,0.7722
585.0,0.7535
586.0,0.738
587.0,0.7538
588.0,0.7343
589.0,0.6481
590.0,0.678
591.0,0.7189
592.0,0.709
593.0,0.7206
594.0,0.7151
595.0,0.6966
596.0,0.726
597.0,0.7177
598.0,0.7164
599.0,0.7173
600.0,0.7189
601.0,0.7134
602.0,0.7086
603.0,0.7205
604.0,0.7325
605.0,0.7289
606.0,0.7261
607.0,0.7335
608.0,0.7256
609.0,0.727
610.0,0.722
611.0,0.7259
612.0,0.7239
613.0,0.7149
614.0,0.7054
615.0,0.7209
616.0,0.6973
617.0,0.696
618.0,0.7229
619.0,0.7156
620.0,0.7201
621.0,0.7207
622.0,0.7121
623.0,0.7011
624.0,0.6892
625.0,0.6877
626.0,0.6978
627.0,0.7052
628.0,0.6531
629.0,0.6866
630.0,0.6706
631.0,0.6876
632.0,0.6797
633.0,0.7011
634.0,0.6949
635.0,0.706
636.0,0.697
637.0,0.7087
638.0,0.7159
639.0,0.7081
640.0,0.7015
641.0,0.7012
642.0,0.6983
643.0,0.7077
644.0,0.7057
645.0,0.7067
646.0,0.6895
647.0,0.6798
648.0,0.6804
649.0,0.6671
650.0,0.6722
651.0,0.7018
652.0,0.6705
653.0,0.6925
654.0,0.685
655.0,0.6585
656.0,0.5843
657.0,0.6001
658.0,0.6732
659.0,0.6783
660.0,0.6812
661.0,0.686
662.0,0.6871
663.0,0.6736
664.0,0.6822
665.0,0.6831
666.0,0.6838
667.0,0.6834
668.0,0.6839
669.0,0.6946
670.0,0.6917
671.0,0.6917
672.0,0.6858
673.0,0.6963
674.0,0.6937
675.0,0.6875
676.0,0.6923
677.0,0.6855
678.0,0.6875
679.0,0.6765
680.0,0.682
681.0,0.6775
682.0,0.6766
683.0,0.6754
684.0,0.672
685.0,0.6778
686.0,0.6737
687.0,0.4237
688.0,0.5076
689.0,0.5098
690.0,0.5384
691.0,0.571
692.0,0.5953
693.0,0.5901
694.0,0.5853
695.0,0.6125
696.0,0.6134
697.0,0.6545
698.0,0.6442
699.0,0.6265
700.0,0.6188
701.0,0.6118
702.0,0.6169
703.0,0.6181
704.0,0.6393
705.0,0.6403
706.0,0.6403
707.0,0.641
708.0,0.6423
709.0,0.6441
710.0,0.6436
711.0,0.6431
712.0,0.6416
713.0,0.6347
714.0,0.6372
715.0,0.6162
716.0,0.6163
717.0,0.5259
718.0,0.4819
719.0,0.4406
720.0,0.4608
721.0,0.5138
722.0,0.5934
723.0,0.5496
724.0,0.4918
725.0,0.4828
726.0,0.5058
727.0,0.5152
728.0,0.4812
729.0,0.5023
730.0,0.5312
731.0,0.5074
732.0,0.546
733.0,0.581
734.0,0.5957
735.0,0.5829
736.0,0.5821
737.0,0.5844
738.0,0.5956
739.0,0.5838
740.0,0.5997
741.0,0.5941
742.0,0.5951
743.0,0.6104
744.0,0.6089
745.0,0.6092
746.0,0.612
747.0,0.6134
748.0,0.6121
749.0,0.6052
750.0,0.6048
751.0,0.5987
752.0,0.6013
753.0,0.6044
754.0,0.6057
755.0,0.6023
756.0,0.6021
757.0,0.6029
758.0,0.5954
759.0,0.582
760.0,0.0759
761.0,0.03644
762.0,0.2723
763.0,0.1231
764.0,0.1961
765.0,0.2722
766.0,0.3459
767.0,0.4488
768.0,0.5282
769.0,0.5417
770.0,0.5627
771.0,0.5684
772.0,0.57
773.0,0.5741
774.0,0.5714
775.0,0.5671
776.0,0.574
777.0,0.5665
778.0,0.563
779.0,0.5635
780.0,0.5604
781.0,0.561
782.0,0.5645
783.0,0.5547
784.0,0.5574
785.0,0.5532
786.0,0.5592
787.0,0.5484
788.0,0.5411
789.0,0.5408
790.0,0.5249
791.0,0.5309
792.0,0.5272
793.0,0.5185
794.0,0.5289
795.0,0.5374
796.0,0.5188
797.0,0.5194
798.0,0.5366
799.0,0.5327
800.0,0.523
801.0,0.5209
802.0,0.5194
803.0,0.5152
804.0,0.5161
805.0,0.5151
806.0,0.5306
807.0,0.5239
808.0,0.5245
809.0,0.5139
810.0,0.5092
811.0,0.5087
812.0,0.4928
813.0,0.4817
814.0,0.4194
815.0,0.417
816.0,0.3876
817.0,0.3951
818.0,0.3793
819.0,0.4279
820.0,0.4016
821.0,0.4748
822.0,0.4604
823.0,0.3045
824.0,0.445
825.0,0.4665
826.0,0.4471
827.0,0.4736
828.0,0.3964
829.0,0.4447
830.0,0.4384
831.0,0.44
832.0,0.4256
833.0,0.4553
834.0,0.4375
835.0,0.4844
836.0,0.4612
837.0,0.4859
838.0,0.4696
839.0,0.4788
840.0,0.4896
841.0,0.4821
842.0,0.484
843.0,0.4846
844.0,0.4774
845.0,0.4941
846.0,0.4921
847.0,0.4832
848.0,0.4798
849.0,0.4662
850.0,0.4467
851.0,0.4725
852.0,0.4694
853.0,0.4521
854.0,0.3901
855.0,0.429
856.0,0.4686
857.0,0.4793
858.0,0.4757
859.0,0.4763
860.0,0.4772
861.0,0.4746
862.0,0.4821
863.0,0.4935
864.0,0.4689
865.0,0.4648
866.0,0.4179
867.0,0.4361
868.0,0.4746
869.0,0.4648
870.0,0.4781
871.0,0.4715
872.0,0.4699
873.0,0.469
874.0,0.4634
875.0,0.454
876.0,0.4587
877.0,0.4633
878.0,0.4683
879.0,0.4611
880.0,0.4512
881.0,0.4443
882.0,0.4538
883.0,0.4554
884.0,0.4533
885.0,0.4567
886.0,0.4345
887.0,0.4397
888.0,0.4458
889.0,0.4516
890.0,0.447
891.0,0.4466
892.0,0.4327
893.0,0.418
894.0,0.4011
895.0,0.3761
896.0,0.3533
897.0,0.2999
898.0,0.3292
899.0,0.2462
900.0,0.3393
901.0,0.258
902.0,0.3086
903.0,0.3097
904.0,0.398
905.0,0.3832
906.0,0.3576
907.0,0.285
908.0,0.2915
909.0,0.3183
910.0,0.2768
911.0,0.2982
912.0,0.3125
913.0,0.2807
914.0,0.2792
915.0,0.3027
916.0,0.2552
917.0,0.3287
918.0,0.2614
919.0,0.3361
920.0,0.3424
921.0,0.3564
922.0,0.3152
923.0,0.3445
924.0,0.3225
925.0,0.3155
926.0,0.3187
927.0,0.3602
928.0,0.2544
929.0,0.2296
930.0,0.1762
931.0,0.1675
932.0,0.1162
933.0,0.09227
934.0,0.04609
935.0,0.0962
936.0,0.05716
937.0,0.05766
938.0,0.07202
939.0,0.1622
940.0,0.1982
941.0,0.1454
942.0,0.1709
943.0,0.1091
944.0,0.118
945.0,0.1508
946.0,0.07233
947.0,0.1503
948.0,0.1099
949.0,0.2055
950.0,0.05063
951.0,0.2032
952.0,0.1034
953.0,0.1374
954.0,0.1727
955.0,0.1394
956.0,0.1383
957.0,0.1031
958.0,0.2016
959.0,0.1552
960.0,0.174
961.0,0.1992
962.0,0.188
963.0,0.2201
964.0,0.2006
965.0,0.2195
966.0,0.2188
967.0,0.2175
968.0,0.304
969.0,0.3162
970.0,0.2889
971.0,0.3362
972.0,0.3205
973.0,0.2735
974.0,0.2589
975.0,0.2709
976.0,0.2542
977.0,0.2953
978.0,0.278
979.0,0.2929
980.0,0.2743
981.0,0.3344
982.0,0.3177
983.0,0.3039
984.0,0.3469
985.0,0.3165
986.0,0.3544
987.0,0.3458
988.0,0.3453
989.0,0.3543
990.0,0.3432
991.0,0.3552
992.0,0.3574
993.0,0.3478
994.0,0.3574
995.0,0.3572
996.0,0.3554
997.0,0.356
998.0,0.3543
999.0,0.353
1000.0,0.3502
1001.0,0.355
1002.0,0.3436
1003.0,0.3486
1004.0,0.3397
1005.0,0.3278
1006.0,0.3403
1007.0,0.3477
1008.0,0.3455
1009.0,0.3433
1010.0,0.3417
1011.0,0.346
1012.0,0.3427
1013.0,0.3452
1014.0,0.3428
1015.0,0.3405
1016.0,0.3389
1017.0,0.3397
1018.0,0.3386
1019.0,0.3308
1020.0,0.3367
1021.0,0.3364
1022.0,0.3335
1023.0,0.337
1024.0,0.332
1025.0,0.337
1026.0,0.3354
1027.0,0.3347
1028.0,0.3339
1029.0,0.3299
1030.0,0.3324
1031.0,0.331
1032.0,0.3301
1033.0,0.3251
1034.0,0.3252
1035.0,0.3262
1036.0,0.3278
1037.0,0.3225
1038.0,0.3239
1039.0,0.3237
1040.0,0.3223
1041.0,0.3236
1042.0,0.3213
1043.0,0.3203
1044.0,0.3213
1045.0,0.3169
1046.0,0.3134
1047.0,0.3162
1048.0,0.3179
1049.0,0.3167
1050.0,0.3152
1051.0,0.3147
1052.0,0.3133
1053.0,0.3108
1054.0,0.3113
1055.0,0.3114
1056.0,0.3102
1057.0,0.3092
1058.0,0.3015
1059.0,0.3017
1060.0,0.3012
1061.0,0.3008
1062.0,0.3023
1063.0,0.2992
1064.0,0.3028
1065.0,0.3004
1066.0,0.2946
1067.0,0.2984
1068.0,0.2917
1069.0,0.2828
1070.0,0.2922
1071.0,0.2973
1072.0,0.2935
1073.0,0.2893
1074.0,0.2974
1075.0,0.2809
1076.0,0.2971
1077.0,0.2908
1078.0,0.2849
1079.0,0.2926
1080.0,0.2864
1081.0,0.2764
1082.0,0.2822
1083.0,0.2835
1084.0,0.2753
1085.0,0.2872
1086.0,0.2597
1087.0,0.2697
1088.0,0.2829
1089.0,0.2726
1090.0,0.2657
1091.0,0.2815
1092.0,0.2812
1093.0,0.2339
1094.0,0.2567
1095.0,0.2442
1096.0,0.2325
1097.0,0.2747
1098.0,0.2283
1099.0,0.2389
1100.0,0.2202
1101.0,0.2235
1102.0,0.2123
1103.0,0.2093
1104.0,0.2097
1105.0,0.233
1106.0,0.1708
1107.0,0.2199
1108.0,0.182
1109.0,0.1832
1110.0,0.2172
1111.0,0.1415
1112.0,0.1821
1113.0,0.11
1114.0,0.1234
1115.0,0.102
1116.0,0.07802
1117.0,0.02517
1118.0,0.08598
1119.0,0.03972
1120.0,0.04971
1121.0,0.06771
1122.0,0.02601
1123.0,0.04506
1124.0,0.03799
1125.0,0.05029
1126.0,0.0151
1127.0,0.05695
1128.0,0.03139
1129.0,0.03365
1130.0,0.02128
1131.0,0.1147
1132.0,0.08872
1133.0,0.05258
1134.0,0.01158
1135.0,0.004454
1136.0,0.0426
1137.0,0.1114
1138.0,0.07781
1139.0,0.1234
1140.0,0.1003
1141.0,0.07401
1142.0,0.08658
1143.0,0.126
1144.0,0.04059
1145.0,0.05077
1146.0,0.05472
1147.0,0.0168
1148.0,0.1089
1149.0,0.08477
1150.0,0.04412
1151.0,0.07718
1152.0,0.09756
1153.0,0.09706
1154.0,0.049
1155.0,0.1286
1156.0,0.1143
1157.0,0.1308
1158.0,0.1293
1159.0,0.1413
1160.0,0.1189
1161.0,0.1505
1162.0,0.1509
1163.0,0.2105
1164.0,0.1782
1165.0,0.1657
1166.0,0.1664
1167.0,0.1824
1168.0,0.1838
1169.0,0.189
1170.0,0.2073
1171.0,0.202
1172.0,0.2068
1173.0,0.2069
1174.0,0.1431
1175.0,0.2031
1176.0,0.2257
1177.0,0.215
1178.0,0.158
1179.0,0.2276
1180.0,0.2005
1181.0,0.207
1182.0,0.1391
1183.0,0.2045
1184.0,0.1903
1185.0,0.1826
1186.0,0.2202
1187.0,0.2085
1188.0,0.141
1189.0,0.1941
1190.0,0.2153
1191.0,0.2023
1192.0,0.2185
1193.0,0.2087
1194.0,0.2156
1195.0,0.2024
1196.0,0.1941
1197.0,0.2164
1198.0,0.1971
1199.0,0.1645
1200.0,0.206
1201.0,0.1976
1202.0,0.1972
1203.0,0.1952
1204.0,0.1692
1205.0,0.2027
1206.0,0.2255
1207.0,0.1963
1208.0,0.1941
1209.0,0.1984
1210.0,0.2073
1211.0,0.1963
1212.0,0.1925
1213.0,0.2173
1214.0,0.1977
1215.0,0.1937
1216.0,0.2168
1217.0,0.2105
1218.0,0.215
1219.0,0.212
1220.0,0.2152
1221.0,0.2177
1222.0,0.2118
1223.0,0.2095
1224.0,0.2077
1225.0,0.2163
1226.0,0.2181
1227.0,0.1997
1228.0,0.2195
1229.0,0.2181
1230.0,0.2141
1231.0,0.2212
1232.0,0.2198
1233.0,0.211
1234.0,0.2213
1235.0,0.2197
1236.0,0.2214
1237.0,0.2178
1238.0,0.2207
1239.0,0.2178
1240.0,0.2187
1241.0,0.2174
1242.0,0.2172
1243.0,0.2154
1244.0,0.2169
1245.0,0.2179
1246.0,0.2166
1247.0,0.2157
1248.0,0.2154
1249.0,0.2162
1250.0,0.2148
1251.0,0.2118
1252.0,0.2121
1253.0,0.21
1254.0,0.2075
1255.0,0.2118
1256.0,0.205
1257.0,0.2037
1258.0,0.2082
1259.0,0.1994
1260.0,0.2006
1261.0,0.1878
1262.0,0.1813
1263.0,0.1816
1264.0,0.1657
1265.0,0.1805
1266.0,0.1725
1267.0,0.1763
1268.0,0.166
1269.0,0.09511
1270.0,0.1754
1271.0,0.1873
1272.0,0.1881
1273.0,0.1859
1274.0,0.1868
1275.0,0.1898
1276.0,0.1919
1277.0,0.1936
1278.0,0.1979
1279.0,0.1961
1280.0,0.1937
1281.0,0.1851
1282.0,0.1788
1283.0,0.1925
1284.0,0.197
1285.0,0.1984
1286.0,0.2013
1287.0,0.1977
1288.0,0.1978
1289.0,0.1906
1290.0,0.1961
1291.0,0.1991
1292.0,0.1852
1293.0,0.1947
1294.0,0.1933
1295.0,0.1918
1296.0,0.182
1297.0,0.1713
1298.0,0.1862
1299.0,0.1952
1300.0,0.1621
1301.0,0.1677
1302.0,0.1856
1303.0,0.1603
1304.0,0.1339
1305.0,0.1816
1306.0,0.1814
1307.0,0.1378
1308.0,0.1611
1309.0,0.1797
1310.0,0.135
1311.0,0.1538
1312.0,0.1491
1313.0,0.1457
1314.0,0.1294
1315.0,0.127
1316.0,0.1508
1317.0,0.1425
1318.0,0.1561
1319.0,0.1185
1320.0,0.1156
1321.0,0.1358
1322.0,0.1366
1323.0,0.09986
1324.0,0.1163
1325.0,0.1484
1326.0,0.1255
1327.0,0.1192
1328.0,0.1018
1329.0,0.07389
1330.0,0.09751
1331.0,0.05585
1332.0,0.05866
1333.0,0.08229
1334.0,0.07136
1335.0,0.09937
1336.0,0.07695
1337.0,0.06732
1338.0,0.07279
1339.0,0.07291
1340.0,0.07177
1341.0,0.06809
1342.0,0.07172
1343.0,0.04483
1344.0,0.02713
1345.0,0.03918
1346.0,0.01727
1347.0,0.01717
1348.0,0.0008515
1349.0,0.003292
1350.0,0.003603
1351.0,0.0006854
1352.0,0.0001393
1353.0,5.422e-06
1354.0,2.259e-05
1355.0,1.011e-07
1356.0,2.608e-06
1357.0,3.991e-06
1358.0,1.227e-07
1359.0,9.82e-09
1360.0,4.777e-08
1361.0,2.102e-11
1362.0,4e-14
1363.0,5.484e-08
1364.0,2.276e-08
1365.0,8.482e-15
1366.0,2.7e-07
1367.0,1.23e-07
1368.0,2.691e-17
1369.0,8.37e-09
1370.0,3.409e-09
1371.0,1.558e-10
1372.0,6.817e-08
1373.0,1.852e-06
1374.0,1.06e-05
1375.0,1.878e-05
1376.0,2.059e-05
1377.0,9.037e-06
1378.0,9.531e-05
1379.0,3.793e-06
1380.0,4.763e-06
1381.0,1.119e-07
1382.0,5.813e-08
1383.0,7.521e-10
1384.0,8.725e-09
1385.0,6.888e-08
1386.0,4.508e-08
1387.0,9.518e-06
1388.0,1.947e-07
1389.0,4.126e-05
1390.0,3.511e-05
1391.0,2.263e-05
1392.0,1.399e-06
1393.0,8.273e-06
1394.0,3.001e-06
1395.0,1.785e-08
1396.0,3.44e-11
1397.0,3.038e-06
1398.0,0.0001041
1399.0,6.677e-05
1400.0,1.154e-11
1401.0,6.771e-11
1402.0,0.0002529
1403.0,0.0002992
1404.0,8.87e-05
1405.0,7.37e-09
1406.0,0.0002081
1407.0,2.026e-05
1408.0,0.0001737
1409.0,4.91e-05
1410.0,4.476e-05
1411.0,0.0002664
1412.0,0.0003904
1413.0,0.005073
1414.0,3.618e-05
1415.0,1.607e-05
1416.0,0.009787
1417.0,0.002524
1418.0,0.002759
1419.0,0.000412
1420.0,0.001675
1421.0,0.001846
1422.0,0.01285
1423.0,0.002386
1424.0,0.004606
1425.0,0.006529
1426.0,0.007981
1427.0,0.01594
1428.0,0.0007794
1429.0,0.01126
1430.0,0.02092
1431.0,0.02343
1432.0,0.0006062
1433.0,0.01431
1434.0,0.00699
1435.0,0.006024
1436.0,0.01308
1437.0,0.01007
1438.0,0.003857
