interpolation:linear
wavelength,value
280.0,4.8949999999999995e-22
280.5,1.597e-20
281.0,8.534000000000001e-20
281.5,4.693e-19
282.0,7.761e-19
282.5,1.921e-18
283.0,6.06e-18
283.5,9.851e-18
284.0,1.61e-16
284.5,4.68e-16
285.0,8.133e-16
285.5,4.017e-15
286.0,1.615e-14
286.5,7.231e-14
287.0,2.067e-13
287.5,7.935e-13
288.0,2.638e-12
288.5,8.049e-12
289.0,2.154e-11
289.5,6.522e-11
290.0,1.813e-10
290.5,3.698e-10
291.0,7.943e-10
291.5,2.28e-09
292.0,4.894e-09
292.5,6.865e-09
293.0,1.472e-08
293.5,3.581e-08
294.0,5.598e-08
294.5,7.561e-08
295.0,1.28e-07
295.5,2.305e-07
296.0,4.525e-07
296.5,6.457e-07
297.0,8.902e-07
297.5,2.469e-06
298.0,4.026e-06
298.5,4.173e-06
299.0,9.508e-06
299.5,1.688e-05
300.0,1.938e-05
300.5,2.945e-05
301.0,5.816e-05
301.5,0.0001014
302.0,9.123e-05
302.5,0.0001843
303.0,0.0003471
303.5,0.0004529
304.0,0.000439
304.5,0.0007111
305.0,0.001211
305.5,0.001495
306.0,0.00149
306.5,0.001948
307.0,0.003219
307.5,0.004755
308.0,0.005111
308.5,0.006362
309.0,0.006516
309.5,0.008007
310.0,0.008313
310.5,0.01368
311.0,0.01764
311.5,0.01723
312.0,0.01824
312.5,0.02306
313.0,0.02551
313.5,0.02433
314.0,0.03182
314.5,0.02994
315.0,0.03976
315.5,0.03233
316.0,0.02963
316.5,0.04433
317.0,0.055
317.5,0.05659
318.0,0.04541
318.5,0.05946
319.0,0.07249
319.5,0.05662
320.0,0.06799
320.5,0.08982
321.0,0.08395
321.5,0.0809
322.0,0.08189
322.5,0.07145
323.0,0.07361
323.5,0.09326
324.0,0.1095
324.5,0.1097
325.0,0.09324
325.5,0.1232
326.0,0.1517
326.5,0.1547
327.0,0.1532
327.5,0.1468
328.0,0.1278
328.5,0.1381
329.0,0.1691
329.5,0.1934
330.0,0.1941
330.5,0.1527
331.0,0.1548
331.5,0.1594
332.0,0.1754
332.5,0.1751
333.0,0.1738
333.5,0.1552
334.0,0.1587
334.5,0.186
335.0,0.1764
335.5,0.2065
336.0,0.1429
336.5,0.1665
337.0,0.1357
337.5,0.1685
338.0,0.1667
338.5,0.193
339.0,0.1912
339.5,0.184
340.0,0.2158
340.5,0.1948
341.0,0.1904
341.5,0.1751
342.0,0.2094
342.5,0.1961
343.0,0.2156
343.5,0.203
344.0,0.1498
344.5,0.1515
345.0,0.201
345.5,0.2054
346.0,0.1748
346.5,0.1981
347.0,0.2126
347.5,0.172
348.0,0.1963
348.5,0.1964
349.0,0.1824
349.5,0.1807
350.0,0.2236
350.5,0.236
351.0,0.2108
351.5,0.2047
352.0,0.2202
352.5,0.172
353.0,0.2169
353.5,0.2321
354.0,0.2411
354.5,0.2446
355.0,0.2439
355.5,0.2205
356.0,0.2309
356.5,0.1972
357.0,0.163
357.5,0.1997
358.0,0.1583
358.5,0.1354
359.0,0.1894
359.5,0.2413
360.0,0.256
360.5,0.2047
361.0,0.1868
361.5,0.2153
362.0,0.1864
362.5,0.2582
363.0,0.2321
363.5,0.214
364.0,0.2619
364.5,0.224
365.0,0.2282
365.5,0.2866
366.0,0.304
366.5,0.2858
367.0,0.2785
367.5,0.2892
368.0,0.2532
368.5,0.2557
369.0,0.2763
369.5,0.2947
370.0,0.3143
370.5,0.2441
371.0,0.2611
371.5,0.3268
372.0,0.217
372.5,0.2603
373.0,0.265
373.5,0.1725
374.0,0.2509
374.5,0.2079
375.0,0.2022
375.5,0.302
376.0,0.2505
376.5,0.2597
377.0,0.2751
377.5,0.3221
378.0,0.3493
378.5,0.3303
379.0,0.2726
379.5,0.2491
380.0,0.2591
380.5,0.3141
381.0,0.315
381.5,0.2499
382.0,0.2222
382.5,0.1896
383.0,0.1756
383.5,0.1693
384.0,0.1868
384.5,0.275
385.0,0.2729
385.5,0.2543
386.0,0.2179
386.5,0.2865
387.0,0.2382
387.5,0.2677
388.0,0.2473
388.5,0.2446
389.0,0.2642
389.5,0.3202
390.0,0.3215
390.5,0.2961
391.0,0.3487
391.5,0.3559
392.0,0.2999
392.5,0.2687
393.0,0.1496
393.5,0.1088
394.0,0.2216
394.5,0.2819
395.0,0.3441
395.5,0.3497
396.0,0.3034
396.5,0.1775
397.0,0.1333
397.5,0.2712
398.0,0.3799
398.5,0.3929
399.0,0.4258
399.5,0.4246
400.0,0.441
401.0,0.4455
402.0,0.4707
403.0,0.4477
404.0,0.4412
405.0,0.4416
406.0,0.435
407.0,0.4285
408.0,0.4455
409.0,0.4772
410.0,0.4175
411.0,0.4527
412.0,0.4869
413.0,0.4751
414.0,0.4814
415.0,0.4833
416.0,0.4923
417.0,0.4806
418.0,0.4721
419.0,0.4788
420.0,0.477
421.0,0.4995
422.0,0.4751
423.0,0.4645
424.0,0.4915
425.0,0.4911
426.0,0.479
427.0,0.4704
428.0,0.4585
429.0,0.4349
430.0,0.381
431.0,0.3777
432.0,0.4882
433.0,0.4913
434.0,0.4564
435.0,0.4768
436.0,0.5379
437.0,0.5313
438.0,0.4843
439.0,0.5005
440.0,0.5169
441.0,0.5362
442.0,0.5754
443.0,0.5603
444.0,0.573
445.0,0.5607
446.0,0.5359
447.0,0.5801
448.0,0.5889
449.0,0.5921
450.0,0.6091
451.0,0.632
452.0,0.6093
453.0,0.5735
454.0,0.5993
455.0,0.6031
456.0,0.6178
457.0,0.6282
458.0,0.6065
459.0,0.6036
460.0,0.6052
461.0,0.6193
462.0,0.6247
463.0,0.6204
464.0,0.611
465.0,0.604
466.0,0.6104
467.0,0.5991
468.0,0.6063
469.0,0.6096
470.0,0.5901
471.0,0.5896
472.0,0.6212
473.0,0.6132
474.0,0.6137
475.0,0.6185
476.0,0.5993
477.0,0.6005
478.0,0.6175
479.0,0.6141
480.0,0.6157
481.0,0.6279
482.0,0.6318
483.0,0.625
484.0,0.6127
485.0,0.5842
486.0,0.5112
487.0,0.5362
488.0,0.5882
489.0,0.5899
490.0,0.6209
491.0,0.6106
492.0,0.5767
493.0,0.5957
494.0,0.6018
495.0,0.607
496.0,0.6108
497.0,0.6202
498.0,0.5912
499.0,0.5985
500.0,0.5807
501.0,0.5696
502.0,0.5608
503.0,0.5827
504.0,0.5653
505.0,0.5877
506.0,0.6066
507.0,0.5774
508.0,0.5602
509.0,0.5765
510.0,0.574
511.0,0.59
512.0,0.5967
513.0,0.5649
514.0,0.5612
515.0,0.5557
516.0,0.5542
517.0,0.4926
518.0,0.5178
519.0,0.5431
520.0,0.5628
521.0,0.568
522.0,0.5683
523.0,0.5579
524.0,0.5774
525.0,0.5836
526.0,0.5572
527.0,0.5246
528.0,0.5544
529.0,0.584
530.0,0.5753
531.0,0.5836
532.0,0.5635
533.0,0.547
534.0,0.5634
535.0,0.576
536.0,0.5816
537.0,0.5589
538.0,0.569
539.0,0.5641
540.0,0.5407
541.0,0.5435
542.0,0.5602
543.0,0.5549
544.0,0.5639
545.0,0.5623
546.0,0.5641
547.0,0.5644
548.0,0.558
549.0,0.5598
550.0,0.5665
551.0,0.5598
552.0,0.5637
553.0,0.5535
554.0,0.5667
555.0,0.5676
556.0,0.5601
557.0,0.5425
558.0,0.538
559.0,0.5275
560.0,0.5338
561.0,0.5404
562.0,0.536
563.0,0.55
564.0,0.5346
565.0,0.5296
566.0,0.5214
567.0,0.5308
568.0,0.5247
569.0,0.5096
570.0,0.5098
571.0,0.5074
572.0,0.5179
573.0,0.5231
574.0,0.521
575.0,0.5107
576.0,0.5061
577.0,0.5119
578.0,0.5049
579.0,0.5081
580.0,0.5197
581.0,0.5238
582.0,0.535
583.0,0.5374
584.0,0.5428
585.0,0.5299
586.0,0.5191
587.0,0.5297
588.0,0.5135
589.0,0.4486
590.0,0.4697
591.0,0.5008
592.0,0.4923
593.0,0.5024
594.0,0.4977
595.0,0.4831
596.0,0.5074
597.0,0.5006
598.0,0.5008
599.0,0.502
600.0,0.504
601.0,0.5009
602.0,0.4977
603.0,0.5064
604.0,0.5151
605.0,0.5127
606.0,0.5112
607.0,0.5169
608.0,0.5117
609.0,0.5131
610.0,0.51
611.0,0.513
612.0,0.5119
613.0,0.5057
614.0,0.4993
615.0,0.5106
616.0,0.4942
617.0,0.4935
618.0,0.5128
619.0,0.5077
620.0,0.511
621.0,0.511
622.0,0.5046
623.0,0.4966
624.0,0.4884
625.0,0.4874
626.0,0.4944
627.0,0.4988
628.0,0.4513
629.0,0.4819
630.0,0.4703
631.0,0.4859
632.0,0.481
633.0,0.4977
634.0,0.4945
635.0,0.503
636.0,0.4973
637.0,0.5061
638.0,0.5121
639.0,0.507
640.0,0.5028
641.0,0.503
642.0,0.5013
643.0,0.5081
644.0,0.5071
645.0,0.5076
646.0,0.494
647.0,0.4841
648.0,0.4846
649.0,0.4747
650.0,0.4822
651.0,0.504
652.0,0.4778
653.0,0.4976
654.0,0.4925
655.0,0.4715
656.0,0.4198
657.0,0.4314
658.0,0.4851
659.0,0.4892
660.0,0.4916
661.0,0.4952
662.0,0.4953
663.0,0.4859
664.0,0.4931
665.0,0.4946
666.0,0.4955
667.0,0.4956
668.0,0.4964
669.0,0.5045
670.0,0.5025
671.0,0.5027
672.0,0.4986
673.0,0.5064
674.0,0.5047
675.0,0.5004
676.0,0.504
677.0,0.4992
678.0,0.5009
679.0,0.493
680.0,0.497
681.0,0.4938
682.0,0.4932
683.0,0.4924
684.0,0.4899
685.0,0.4943
686.0,0.4911
687.0,0.2655
688.0,0.338
689.0,0.3401
690.0,0.3664
691.0,0.3969
692.0,0.4207
693.0,0.4165
694.0,0.414
695.0,0.4389
696.0,0.4399
697.0,0.4758
698.0,0.4682
699.0,0.4509
700.0,0.4452
701.0,0.4384
702.0,0.4438
703.0,0.4451
704.0,0.463
705.0,0.4637
706.0,0.4647
707.0,0.4656
708.0,0.4665
709.0,0.4696
710.0,0.4683
711.0,0.4685
712.0,0.4683
713.0,0.4625
714.0,0.4645
715.0,0.4474
716.0,0.447
717.0,0.3655
718.0,0.3334
719.0,0.3036
720.0,0.3159
721.0,0.3615
722.0,0.4275
723.0,0.391
724.0,0.3439
725.0,0.3356
726.0,0.3521
727.0,0.3627
728.0,0.3337
729.0,0.354
730.0,0.3732
731.0,0.3554
732.0,0.3884
733.0,0.4188
734.0,0.4311
735.0,0.4209
736.0,0.4201
737.0,0.4218
738.0,0.4341
739.0,0.4256
740.0,0.4385
741.0,0.4352
742.0,0.4367
743.0,0.4481
744.0,0.4475
745.0,0.4482
746.0,0.4502
747.0,0.4514
748.0,0.4505
749.0,0.4454
750.0,0.4452
751.0,0.4407
752.0,0.4427
753.0,0.445
754.0,0.446
755.0,0.4434
756.0,0.4433
757.0,0.4439
758.0,0.4383
759.0,0.4257
760.0,0.02918
761.0,0.0113
762.0,0.1568
763.0,0.05486
764.0,0.1013
765.0,0.1566
766.0,0.2179
767.0,0.3043
768.0,0.3772
769.0,0.3912
770.0,0.4115
771.0,0.418
772.0,0.4199
773.0,0.4231
774.0,0.4212
775.0,0.4182
776.0,0.4234
777.0,0.4178
778.0,0.4153
779.0,0.4156
780.0,0.4133
781.0,0.4138
782.0,0.4165
783.0,0.4093
784.0,0.4114
785.0,0.4081
786.0,0.4124
787.0,0.4023
788.0,0.396
789.0,0.3957
790.0,0.3813
791.0,0.3884
792.0,0.3861
793.0,0.3795
794.0,0.3899
795.0,0.3955
796.0,0.3779
797.0,0.378
798.0,0.3944
799.0,0.3908
800.0,0.3828
801.0,0.3803
802.0,0.3792
803.0,0.3756
804.0,0.3767
805.0,0.3771
806.0,0.3904
807.0,0.3851
808.0,0.3857
809.0,0.3764
810.0,0.372
811.0,0.3696
812.0,0.3554
813.0,0.3463
814.0,0.2941
815.0,0.2929
816.0,0.2714
817.0,0.2772
818.0,0.2643
819.0,0.3046
820.0,0.2836
821.0,0.3447
822.0,0.3327
823.0,0.2063
824.0,0.318
825.0,0.3387
826.0,0.3215
827.0,0.3437
828.0,0.2788
829.0,0.3205
830.0,0.3152
831.0,0.3164
832.0,0.3045
833.0,0.3298
834.0,0.3141
835.0,0.3543
836.0,0.333
837.0,0.3555
838.0,0.3413
839.0,0.3507
840.0,0.3592
841.0,0.3528
842.0,0.3556
843.0,0.3576
844.0,0.3514
845.0,0.3649
846.0,0.3636
847.0,0.3575
848.0,0.3543
849.0,0.3442
850.0,0.3299
851.0,0.3483
852.0,0.3463
853.0,0.3341
854.0,0.2878
855.0,0.3172
856.0,0.3462
857.0,0.3546
858.0,0.3517
859.0,0.3524
860.0,0.3534
861.0,0.3513
862.0,0.357
863.0,0.3654
864.0,0.3472
865.0,0.3443
866.0,0.3096
867.0,0.3231
868.0,0.3516
869.0,0.3444
870.0,0.3542
871.0,0.3494
872.0,0.3482
873.0,0.3475
874.0,0.3434
875.0,0.3364
876.0,0.3398
877.0,0.3433
878.0,0.3469
879.0,0.3416
880.0,0.3343
881.0,0.3288
882.0,0.3357
883.0,0.3373
884.0,0.3355
885.0,0.338
886.0,0.3204
887.0,0.3252
888.0,0.3292
889.0,0.3344
890.0,0.3298
891.0,0.3302
892.0,0.3182
893.0,0.3059
894.0,0.29
895.0,0.2676
896.0,0.2504
897.0,0.2076
898.0,0.2303
899.0,0.1668
900.0,0.2406
901.0,0.1747
902.0,0.2164
903.0,0.2145
904.0,0.2877
905.0,0.2755
906.0,0.2558
907.0,0.1958
908.0,0.202
909.0,0.2236
910.0,0.1885
911.0,0.2076
912.0,0.218
913.0,0.1908
914.0,0.1911
915.0,0.2066
916.0,0.1734
917.0,0.2292
918.0,0.1771
919.0,0.2365
920.0,0.2454
921.0,0.2551
922.0,0.2213
923.0,0.2471
924.0,0.2252
925.0,0.2207
926.0,0.2221
927.0,0.2553
928.0,0.1681
929.0,0.1484
930.0,0.1088
931.0,0.1035
932.0,0.06672
933.0,0.05083
934.0,0.02114
935.0,0.05472
936.0,0.02965
937.0,0.0298
938.0,0.03826
939.0,0.1001
940.0,0.1263
941.0,0.08785
942.0,0.1057
943.0,0.0639
944.0,0.07292
945.0,0.09219
946.0,0.03953
947.0,0.09057
948.0,0.06578
949.0,0.1287
950.0,0.02566
951.0,0.1278
952.0,0.05933
953.0,0.0828
954.0,0.1086
955.0,0.08449
956.0,0.08851
957.0,0.05883
958.0,0.1338
959.0,0.09753
960.0,0.1093
961.0,0.1297
962.0,0.1222
963.0,0.147
964.0,0.1329
965.0,0.1464
966.0,0.1455
967.0,0.144
968.0,0.2169
969.0,0.2233
970.0,0.2027
971.0,0.2425
972.0,0.2298
973.0,0.1894
974.0,0.1788
975.0,0.1893
976.0,0.1738
977.0,0.2099
978.0,0.1943
979.0,0.2066
980.0,0.1926
981.0,0.2414
982.0,0.2269
983.0,0.2157
984.0,0.2536
985.0,0.2259
986.0,0.2611
987.0,0.2524
988.0,0.2522
989.0,0.2622
990.0,0.2505
991.0,0.2626
992.0,0.2645
993.0,0.2552
994.0,0.2648
995.0,0.265
996.0,0.2632
997.0,0.2639
998.0,0.2624
999.0,0.2616
1000.0,0.259
1001.0,0.2631
1002.0,0.2525
1003.0,0.2583
1004.0,0.2511
1005.0,0.2431
1006.0,0.252
1007.0,0.2576
1008.0,0.2556
1009.0,0.2536
1010.0,0.2522
1011.0,0.2564
1012.0,0.2536
1013.0,0.256
1014.0,0.2542
1015.0,0.2524
1016.0,0.2512
1017.0,0.2517
1018.0,0.2512
1019.0,0.2445
1020.0,0.2496
1021.0,0.2495
1022.0,0.2471
1023.0,0.2497
1024.0,0.2451
1025.0,0.2499
1026.0,0.2485
1027.0,0.248
1028.0,0.2474
1029.0,0.2443
1030.0,0.2465
1031.0,0.2453
1032.0,0.2448
1033.0,0.241
1034.0,0.2411
1035.0,0.2419
1036.0,0.243
1037.0,0.2391
1038.0,0.2401
1039.0,0.2398
1040.0,0.2388
1041.0,0.2397
1042.0,0.238
1043.0,0.2372
1044.0,0.2379
1045.0,0.2346
1046.0,0.2319
1047.0,0.2339
1048.0,0.2351
1049.0,0.2342
1050.0,0.233
1051.0,0.2325
1052.0,0.2314
1053.0,0.2294
1054.0,0.2298
1055.0,0.2297
1056.0,0.2287
1057.0,0.2278
1058.0,0.222
1059.0,0.222
1060.0,0.2216
1061.0,0.2212
1062.0,0.2221
1063.0,0.2198
1064.0,0.2225
1065.0,0.2204
1066.0,0.2164
1067.0,0.219
1068.0,0.2139
1069.0,0.2076
1070.0,0.2143
1071.0,0.2188
1072.0,0.2154
1073.0,0.2125
1074.0,0.2193
1075.0,0.2049
1076.0,0.2189
1077.0,0.2131
1078.0,0.2082
1079.0,0.216
1080.0,0.2099
1081.0,0.2014
1082.0,0.2075
1083.0,0.209
1084.0,0.2002
1085.0,0.2106
1086.0,0.1876
1087.0,0.1967
1088.0,0.2082
1089.0,0.1985
1090.0,0.1924
1091.0,0.2067
1092.0,0.2067
1093.0,0.1666
1094.0,0.1881
1095.0,0.1742
1096.0,0.1643
1097.0,0.202
1098.0,0.1605
1099.0,0.1687
1100.0,0.1535
1101.0,0.1566
1102.0,0.1471
1103.0,0.144
1104.0,0.1445
1105.0,0.1642
1106.0,0.1118
1107.0,0.1533
1108.0,0.1218
1109.0,0.1235
1110.0,0.1504
1111.0,0.09129
1112.0,0.1231
1113.0,0.068
1114.0,0.07656
1115.0,0.06276
1116.0,0.04461
1117.0,0.01154
1118.0,0.04995
1119.0,0.02037
1120.0,0.02506
1121.0,0.03559
1122.0,0.01156
1123.0,0.02283
1124.0,0.01921
1125.0,0.02616
1126.0,0.005945
1127.0,0.02982
1128.0,0.01416
1129.0,0.01539
1130.0,0.009332
1131.0,0.0668
1132.0,0.05036
1133.0,0.02644
1134.0,0.00448
1135.0,0.001831
1136.0,0.02025
1137.0,0.06346
1138.0,0.04372
1139.0,0.07737
1140.0,0.05995
1141.0,0.04169
1142.0,0.05017
1143.0,0.07656
1144.0,0.02145
1145.0,0.02551
1146.0,0.02745
1147.0,0.006561
1148.0,0.06563
1149.0,0.04901
1150.0,0.02409
1151.0,0.04337
1152.0,0.05746
1153.0,0.05926
1154.0,0.02487
1155.0,0.08054
1156.0,0.07001
1157.0,0.0835
1158.0,0.08242
1159.0,0.09167
1160.0,0.07591
1161.0,0.1005
1162.0,0.1003
1163.0,0.1481
1164.0,0.1225
1165.0,0.111
1166.0,0.114
1167.0,0.1263
1168.0,0.1266
1169.0,0.1309
1170.0,0.1462
1171.0,0.1424
1172.0,0.1475
1173.0,0.146
1174.0,0.09535
1175.0,0.1448
1176.0,0.1645
1177.0,0.1543
1178.0,0.1091
1179.0,0.1659
1180.0,0.1424
1181.0,0.1472
1182.0,0.09401
1183.0,0.1461
1184.0,0.1344
1185.0,0.1273
1186.0,0.1588
1187.0,0.1487
1188.0,0.09429
1189.0,0.1382
1190.0,0.1557
1191.0,0.1429
1192.0,0.1583
1193.0,0.1501
1194.0,0.1558
1195.0,0.144
1196.0,0.1368
1197.0,0.1573
1198.0,0.1422
1199.0,0.1141
1200.0,0.148
1201.0,0.1402
1202.0,0.1415
1203.0,0.1391
1204.0,0.1187
1205.0,0.1467
1206.0,0.1655
1207.0,0.1401
1208.0,0.14
1209.0,0.1433
1210.0,0.1509
1211.0,0.1412
1212.0,0.1358
1213.0,0.1583
1214.0,0.1405
1215.0,0.1374
1216.0,0.1581
1217.0,0.1526
1218.0,0.1567
1219.0,0.154
1220.0,0.157
1221.0,0.1594
1222.0,0.1546
1223.0,0.1526
1224.0,0.1503
1225.0,0.1581
1226.0,0.1602
1227.0,0.1442
1228.0,0.1618
1229.0,0.1602
1230.0,0.1569
1231.0,0.1637
1232.0,0.1626
1233.0,0.1539
1234.0,0.1642
1235.0,0.1627
1236.0,0.1642
1237.0,0.1606
1238.0,0.1637
1239.0,0.1616
1240.0,0.1623
1241.0,0.1608
1242.0,0.1611
1243.0,0.1599
1244.0,0.1608
1245.0,0.1616
1246.0,0.1607
1247.0,0.1599
1248.0,0.1593
1249.0,0.1602
1250.0,0.159
1251.0,0.1565
1252.0,0.1571
1253.0,0.1547
1254.0,0.1523
1255.0,0.1566
1256.0,0.1502
1257.0,0.1489
1258.0,0.1534
1259.0,0.1447
1260.0,0.1458
1261.0,0.1337
1262.0,0.1277
1263.0,0.1278
1264.0,0.1134
1265.0,0.1271
1266.0,0.1196
1267.0,0.1236
1268.0,0.1142
1269.0,0.05404
1270.0,0.1224
1271.0,0.1337
1272.0,0.1346
1273.0,0.1327
1274.0,0.1338
1275.0,0.1364
1276.0,0.1385
1277.0,0.1404
1278.0,0.1447
1279.0,0.1432
1280.0,0.1416
1281.0,0.1358
1282.0,0.1321
1283.0,0.142
1284.0,0.1452
1285.0,0.1463
1286.0,0.149
1287.0,0.1454
1288.0,0.1458
1289.0,0.1387
1290.0,0.1446
1291.0,0.1471
1292.0,0.1337
1293.0,0.1432
1294.0,0.142
1295.0,0.1399
1296.0,0.1308
1297.0,0.1218
1298.0,0.1354
1299.0,0.1438
1300.0,0.1147
1301.0,0.1195
1302.0,0.135
1303.0,0.1139
1304.0,0.09086
1305.0,0.1319
1306.0,0.1313
1307.0,0.09517
1308.0,0.1152
1309.0,0.1293
1310.0,0.09282
1311.0,0.109
1312.0,0.1051
1313.0,0.1016
1314.0,0.08872
1315.0,0.08613
1316.0,0.106
1317.0,0.09959
1318.0,0.1109
1319.0,0.07919
1320.0,0.07825
1321.0,0.09378
1322.0,0.09332
1323.0,0.0642
1324.0,0.07796
1325.0,0.1038
1326.0,0.0853
1327.0,0.08028
1328.0,0.06715
1329.0,0.04527
1330.0,0.06161
1331.0,0.0317
1332.0,0.03436
1333.0,0.04887
1334.0,0.04491
1335.0,0.06352
1336.0,0.04706
1337.0,0.04065
1338.0,0.04367
1339.0,0.04425
1340.0,0.04467
1341.0,0.03976
1342.0,0.04224
1343.0,0.02246
1344.0,0.01404
1345.0,0.01993
1346.0,0.006881
1347.0,0.006502
1348.0,0.0001959
1349.0,0.0008474
1350.0,0.001003
1351.0,0.0001199
1352.0,1.305e-05
1353.0,3.409e-07
1354.0,1.99e-06
1355.0,3.774e-09
1356.0,1.632e-07
1357.0,2.477e-07
1358.0,4.681e-09
1359.0,2.908e-10
1360.0,1.566e-09
1361.0,8.708e-13
1362.0,2.296e-15
1363.0,1.547e-09
1364.0,6.79e-10
1365.0,7.882e-16
1366.0,7.843e-09
1367.0,4.119e-09
1368.0,6.066e-18
1369.0,2.505e-10
1370.0,1.002e-10
1371.0,4.989e-12
1372.0,2.326e-09
1373.0,8.63e-08
1374.0,6.822e-07
1375.0,1.069e-06
1376.0,1.859e-06
1377.0,7.682e-07
1378.0,8.365e-06
1379.0,3.308e-07
1380.0,3.101e-07
1381.0,6.654e-09
1382.0,1.858e-09
1383.0,2.339e-11
1384.0,2.477e-10
1385.0,2.885e-09
1386.0,1.298e-09
1387.0,4.414e-07
1388.0,1.155e-08
1389.0,3.053e-06
1390.0,2.447e-06
1391.0,1.563e-06
1392.0,9.716e-08
1393.0,6.749e-07
1394.0,1.265e-07
1395.0,6.489e-10
1396.0,1.179e-12
1397.0,2.165e-07
1398.0,8.444e-06
1399.0,5.645e-06
1400.0,4.776e-13
1401.0,2.159e-12
1402.0,4.23e-05
1403.0,4.308e-05
1404.0,1.18e-05
1405.0,2.272e-10
1406.0,2.16e-05
1407.0,2.976e-06
1408.0,1.901e-05
1409.0,3.82e-06
1410.0,4.939e-06
1411.0,3.966e-05
1412.0,6.905e-05
1413.0,0.001321
1414.0,4.238e-06
1415.0,1.64e-06
1416.0,0.003578
1417.0,0.000727
1418.0,0.0006805
1419.0,9.634e-05
1420.0,0.0004099
1421.0,0.0005088
1422.0,0.004687
1423.0,0.0008379
1424.0,0.001725
1425.0,0.002234
1426.0,0.003149
1427.0,0.007028
1428.0,0.0001683
1429.0,0.004492
1430.0,0.00977
1431.0,0.01127
