interpolation:linear
wavelength,value
280.0,8.3429999999999995e-22
280.5,2.6960000000000003e-20
281.0,1.437e-19
281.5,5.25e-19
282.0,8.983e-19
282.5,2.225e-18
283.0,7.004e-18
283.5,1.137e-17
284.0,1.845e-16
284.5,5.344e-16
285.0,1.009e-15
285.5,4.901e-15
286.0,1.962e-14
286.5,8.713e-14
287.0,2.479e-13
287.5,9.46e-13
288.0,2.997e-12
288.5,9.279e-12
289.0,2.506e-11
289.5,7.634e-11
290.0,2.129e-10
290.5,4.354e-10
291.0,9.366e-10
291.5,2.692e-09
292.0,5.857e-09
292.5,8.308e-09
293.0,1.805e-08
293.5,4.461e-08
294.0,7.046e-08
294.5,9.319e-08
295.0,1.591e-07
295.5,3.386e-07
296.0,6.217e-07
296.5,8.949e-07
297.0,1.244e-06
297.5,3.505e-06
298.0,5.803e-06
298.5,6.096e-06
299.0,1.409e-05
299.5,2.573e-05
300.0,3.007e-05
300.5,4.663e-05
301.0,9.558e-05
301.5,0.000174
302.0,0.000161
302.5,0.0003242
303.0,0.000607
303.5,0.0007873
304.0,0.0007579
304.5,0.001205
305.0,0.001994
305.5,0.002415
306.0,0.002389
306.5,0.003084
307.0,0.004951
307.5,0.007102
308.0,0.007596
308.5,0.009315
309.0,0.009414
309.5,0.0113
310.0,0.0116
310.5,0.019
311.0,0.02428
311.5,0.02363
312.0,0.02455
312.5,0.03065
313.0,0.03369
313.5,0.03232
314.0,0.04166
314.5,0.03844
315.0,0.05088
315.5,0.04177
316.0,0.03767
316.5,0.05561
317.0,0.06902
317.5,0.07129
318.0,0.05667
318.5,0.07292
319.0,0.0881
319.5,0.06981
320.0,0.08401
320.5,0.109
321.0,0.1002
321.5,0.09643
322.0,0.09935
322.5,0.0866
323.0,0.08821
323.5,0.1106
324.0,0.1296
324.5,0.1304
325.0,0.1115
325.5,0.146
326.0,0.1794
326.5,0.1817
327.0,0.1804
327.5,0.1734
328.0,0.1522
328.5,0.1629
329.0,0.1978
329.5,0.2256
330.0,0.2269
330.5,0.1797
331.0,0.1824
331.5,0.187
332.0,0.2045
332.5,0.2034
333.0,0.2023
333.5,0.1815
334.0,0.1858
334.5,0.2166
335.0,0.2048
335.5,0.2394
336.0,0.1657
336.5,0.1934
337.0,0.1581
337.5,0.1964
338.0,0.1934
338.5,0.2237
339.0,0.2216
339.5,0.2132
340.0,0.2503
340.5,0.2259
341.0,0.2205
341.5,0.2027
342.0,0.2424
342.5,0.227
343.0,0.2496
343.5,0.235
344.0,0.1736
344.5,0.1755
345.0,0.2326
345.5,0.2377
346.0,0.2022
346.5,0.2291
347.0,0.2459
347.5,0.1989
348.0,0.227
348.5,0.227
349.0,0.2108
349.5,0.2088
350.0,0.2584
350.5,0.2727
351.0,0.2436
351.5,0.2367
352.0,0.2545
352.5,0.1988
353.0,0.2506
353.5,0.2681
354.0,0.2785
354.5,0.2825
355.0,0.2816
355.5,0.2546
356.0,0.2665
356.5,0.2277
357.0,0.1882
357.5,0.2304
358.0,0.1827
358.5,0.1562
359.0,0.2185
359.5,0.2785
360.0,0.2954
360.5,0.2362
361.0,0.2155
361.5,0.2483
362.0,0.2149
362.5,0.2977
363.0,0.2676
363.5,0.2467
364.0,0.3019
364.5,0.2581
365.0,0.263
365.5,0.3303
366.0,0.3502
366.5,0.3292
367.0,0.3208
367.5,0.3331
368.0,0.2916
368.5,0.2944
369.0,0.3181
369.5,0.3393
370.0,0.3619
370.5,0.281
371.0,0.3004
371.5,0.376
372.0,0.2497
372.5,0.2995
373.0,0.3049
373.5,0.1985
374.0,0.2885
374.5,0.2391
375.0,0.2325
375.5,0.3473
376.0,0.288
376.5,0.2986
377.0,0.3163
377.5,0.3702
378.0,0.4015
378.5,0.3796
379.0,0.3134
379.5,0.2863
380.0,0.2978
380.5,0.3609
381.0,0.3619
381.5,0.2871
382.0,0.2551
382.5,0.2177
383.0,0.2016
383.5,0.1943
384.0,0.2145
384.5,0.3156
385.0,0.3132
385.5,0.2918
386.0,0.2501
386.5,0.3287
387.0,0.2732
387.5,0.307
388.0,0.2836
388.5,0.2805
389.0,0.3029
389.5,0.3671
390.0,0.3686
390.5,0.3394
391.0,0.3997
391.5,0.4078
392.0,0.3437
392.5,0.3078
393.0,0.1714
393.5,0.1247
394.0,0.2538
394.5,0.3228
395.0,0.3941
395.5,0.4004
396.0,0.3474
396.5,0.2032
397.0,0.1526
397.5,0.3104
398.0,0.4348
398.5,0.4496
399.0,0.4872
399.5,0.4858
400.0,0.5046
401.0,0.5104
402.0,0.539
403.0,0.5126
404.0,0.5051
405.0,0.5054
406.0,0.4977
407.0,0.4902
408.0,0.5095
409.0,0.5458
410.0,0.4773
411.0,0.5175
412.0,0.5564
413.0,0.5428
414.0,0.55
415.0,0.5519
416.0,0.5622
417.0,0.5487
418.0,0.5389
419.0,0.5464
420.0,0.5443
421.0,0.5698
422.0,0.5419
423.0,0.5297
424.0,0.5605
425.0,0.5599
426.0,0.546
427.0,0.5361
428.0,0.5225
429.0,0.4954
430.0,0.4339
431.0,0.4301
432.0,0.5558
433.0,0.5593
434.0,0.5195
435.0,0.5427
436.0,0.6121
437.0,0.6044
438.0,0.5508
439.0,0.5694
440.0,0.5879
441.0,0.6097
442.0,0.6541
443.0,0.6371
444.0,0.6514
445.0,0.6374
446.0,0.6089
447.0,0.6589
448.0,0.669
449.0,0.6724
450.0,0.6916
451.0,0.7176
452.0,0.6917
453.0,0.6509
454.0,0.68
455.0,0.6843
456.0,0.7008
457.0,0.7126
458.0,0.6881
459.0,0.6848
460.0,0.6866
461.0,0.7026
462.0,0.7085
463.0,0.7036
464.0,0.6927
465.0,0.6846
466.0,0.6917
467.0,0.6789
468.0,0.687
469.0,0.6907
470.0,0.6687
471.0,0.668
472.0,0.7039
473.0,0.6948
474.0,0.6954
475.0,0.701
476.0,0.6795
477.0,0.681
478.0,0.7002
479.0,0.6963
480.0,0.698
481.0,0.7115
482.0,0.7158
483.0,0.7078
484.0,0.6937
485.0,0.6613
486.0,0.5785
487.0,0.6066
488.0,0.6655
489.0,0.6674
490.0,0.7025
491.0,0.6906
492.0,0.6523
493.0,0.6737
494.0,0.6806
495.0,0.6865
496.0,0.6908
497.0,0.7014
498.0,0.6686
499.0,0.677
500.0,0.657
501.0,0.6446
502.0,0.6348
503.0,0.6599
504.0,0.6411
505.0,0.6658
506.0,0.6873
507.0,0.6541
508.0,0.6344
509.0,0.6527
510.0,0.6497
511.0,0.6675
512.0,0.675
513.0,0.639
514.0,0.6348
515.0,0.6285
516.0,0.6269
517.0,0.5572
518.0,0.5857
519.0,0.6143
520.0,0.6366
521.0,0.6426
522.0,0.643
523.0,0.6313
524.0,0.6535
525.0,0.6607
526.0,0.6309
527.0,0.5941
528.0,0.628
529.0,0.6617
530.0,0.652
531.0,0.6615
532.0,0.6386
533.0,0.62
534.0,0.6385
535.0,0.6527
536.0,0.6589
537.0,0.6331
538.0,0.6444
539.0,0.639
540.0,0.6125
541.0,0.616
542.0,0.6349
543.0,0.6288
544.0,0.6391
545.0,0.6373
546.0,0.6396
547.0,0.6397
548.0,0.6323
549.0,0.6344
550.0,0.642
551.0,0.6343
552.0,0.6387
553.0,0.6272
554.0,0.6421
555.0,0.6433
556.0,0.6348
557.0,0.6149
558.0,0.6099
559.0,0.5982
560.0,0.6054
561.0,0.613
562.0,0.6082
563.0,0.6243
564.0,0.6069
565.0,0.6014
566.0,0.5922
567.0,0.603
568.0,0.5965
569.0,0.5802
570.0,0.5804
571.0,0.5774
572.0,0.5898
573.0,0.5959
574.0,0.5937
575.0,0.5821
576.0,0.5768
577.0,0.5833
578.0,0.5752
579.0,0.5785
580.0,0.591
581.0,0.5952
582.0,0.6076
583.0,0.6099
584.0,0.6158
585.0,0.6011
586.0,0.5888
587.0,0.601
588.0,0.5837
589.0,0.5119
590.0,0.5358
591.0,0.5701
592.0,0.5611
593.0,0.5717
594.0,0.5668
595.0,0.5509
596.0,0.5769
597.0,0.5696
598.0,0.5694
599.0,0.5705
600.0,0.5724
601.0,0.5685
602.0,0.5648
603.0,0.5746
604.0,0.5843
605.0,0.5815
606.0,0.5796
607.0,0.5858
608.0,0.5798
609.0,0.5812
610.0,0.5775
611.0,0.5808
612.0,0.5794
613.0,0.5724
614.0,0.5649
615.0,0.5776
616.0,0.5589
617.0,0.558
618.0,0.5797
619.0,0.574
620.0,0.5776
621.0,0.5778
622.0,0.5707
623.0,0.5617
624.0,0.5524
625.0,0.5512
626.0,0.5592
627.0,0.5645
628.0,0.5153
629.0,0.547
630.0,0.534
631.0,0.5501
632.0,0.5443
633.0,0.5625
634.0,0.5584
635.0,0.5677
636.0,0.561
637.0,0.5707
638.0,0.5771
639.0,0.5712
640.0,0.5662
641.0,0.5662
642.0,0.5642
643.0,0.5718
644.0,0.5705
645.0,0.5711
646.0,0.5564
647.0,0.5465
648.0,0.5469
649.0,0.536
650.0,0.5428
651.0,0.5671
652.0,0.5392
653.0,0.5598
654.0,0.554
655.0,0.5311
656.0,0.4723
657.0,0.4852
658.0,0.5451
659.0,0.5496
660.0,0.5522
661.0,0.5561
662.0,0.5565
663.0,0.5458
664.0,0.5535
665.0,0.5548
666.0,0.5556
667.0,0.5556
668.0,0.5563
669.0,0.5652
670.0,0.563
671.0,0.5631
672.0,0.5584
673.0,0.5671
674.0,0.5651
675.0,0.5602
676.0,0.5642
677.0,0.5588
678.0,0.5605
679.0,0.5516
680.0,0.5561
681.0,0.5525
682.0,0.5519
683.0,0.5508
684.0,0.5481
685.0,0.553
686.0,0.5495
687.0,0.3147
688.0,0.3914
689.0,0.3936
690.0,0.4208
691.0,0.4522
692.0,0.4763
693.0,0.4718
694.0,0.4685
695.0,0.4941
696.0,0.4951
697.0,0.5329
698.0,0.5244
699.0,0.5069
700.0,0.5005
701.0,0.4936
702.0,0.499
703.0,0.5002
704.0,0.5193
705.0,0.52
706.0,0.5207
707.0,0.5216
708.0,0.5226
709.0,0.5253
710.0,0.5243
711.0,0.5243
712.0,0.5237
713.0,0.5175
714.0,0.5197
715.0,0.5013
716.0,0.501
717.0,0.4162
718.0,0.3802
719.0,0.3468
720.0,0.3615
721.0,0.4098
722.0,0.4804
723.0,0.4414
724.0,0.3907
725.0,0.382
726.0,0.4007
727.0,0.411
728.0,0.3802
729.0,0.4009
730.0,0.4233
731.0,0.4035
732.0,0.4384
733.0,0.4705
734.0,0.4836
735.0,0.4726
736.0,0.4718
737.0,0.4737
738.0,0.4857
739.0,0.4761
740.0,0.49
741.0,0.486
742.0,0.4873
743.0,0.5
744.0,0.4991
745.0,0.4997
746.0,0.5019
747.0,0.5032
748.0,0.5022
749.0,0.4965
750.0,0.4962
751.0,0.4912
752.0,0.4934
753.0,0.496
754.0,0.4971
755.0,0.4942
756.0,0.4941
757.0,0.4948
758.0,0.4885
759.0,0.4756
760.0,0.04153
761.0,0.01737
762.0,0.192
763.0,0.07395
764.0,0.1292
765.0,0.1918
766.0,0.2578
767.0,0.3501
768.0,0.4253
769.0,0.4392
770.0,0.4598
771.0,0.4661
772.0,0.4679
773.0,0.4714
774.0,0.4692
775.0,0.4658
776.0,0.4715
777.0,0.4654
778.0,0.4625
779.0,0.4629
780.0,0.4604
781.0,0.4609
782.0,0.4638
783.0,0.4558
784.0,0.4581
785.0,0.4545
786.0,0.4593
787.0,0.449
788.0,0.4424
789.0,0.442
790.0,0.4271
791.0,0.4339
792.0,0.4312
793.0,0.4239
794.0,0.4344
795.0,0.4408
796.0,0.4229
797.0,0.4231
798.0,0.4398
799.0,0.4362
800.0,0.4275
801.0,0.4252
802.0,0.424
803.0,0.4202
804.0,0.4213
805.0,0.4212
806.0,0.4352
807.0,0.4295
808.0,0.4301
809.0,0.4204
810.0,0.4158
811.0,0.4139
812.0,0.3992
813.0,0.3894
814.0,0.3337
815.0,0.3321
816.0,0.3081
817.0,0.3145
818.0,0.3006
819.0,0.3438
820.0,0.3209
821.0,0.3862
822.0,0.3734
823.0,0.237
824.0,0.3584
825.0,0.3794
826.0,0.3615
827.0,0.3851
828.0,0.316
829.0,0.36
830.0,0.3543
831.0,0.3557
832.0,0.3429
833.0,0.3698
834.0,0.3534
835.0,0.3958
836.0,0.3739
837.0,0.3971
838.0,0.3823
839.0,0.3917
840.0,0.4009
841.0,0.3941
842.0,0.3966
843.0,0.3982
844.0,0.3917
845.0,0.4062
846.0,0.4047
847.0,0.3977
848.0,0.3944
849.0,0.3832
850.0,0.3672
851.0,0.388
852.0,0.3857
853.0,0.3719
854.0,0.3205
855.0,0.3529
856.0,0.3854
857.0,0.3945
858.0,0.3913
859.0,0.392
860.0,0.393
861.0,0.3908
862.0,0.397
863.0,0.4064
864.0,0.3861
865.0,0.3828
866.0,0.3442
867.0,0.3592
868.0,0.391
869.0,0.3829
870.0,0.3938
871.0,0.3884
872.0,0.3871
873.0,0.3864
874.0,0.3818
875.0,0.374
876.0,0.3778
877.0,0.3817
878.0,0.3857
879.0,0.3798
880.0,0.3717
881.0,0.3657
882.0,0.3735
883.0,0.3751
884.0,0.3732
885.0,0.376
886.0,0.3569
887.0,0.3618
888.0,0.3665
889.0,0.3719
890.0,0.3673
891.0,0.3674
892.0,0.3548
893.0,0.3417
894.0,0.3254
895.0,0.3021
896.0,0.283
897.0,0.2367
898.0,0.2616
899.0,0.1916
900.0,0.2719
901.0,0.2008
902.0,0.2456
903.0,0.2446
904.0,0.3229
905.0,0.3097
906.0,0.2881
907.0,0.2239
908.0,0.2302
909.0,0.2536
910.0,0.2162
911.0,0.2361
912.0,0.2478
913.0,0.219
914.0,0.2188
915.0,0.2368
916.0,0.1991
917.0,0.2607
918.0,0.2035
919.0,0.2681
920.0,0.2762
921.0,0.2873
922.0,0.2509
923.0,0.2781
924.0,0.256
925.0,0.2507
926.0,0.2527
927.0,0.2887
928.0,0.195
929.0,0.1736
930.0,0.1295
931.0,0.1232
932.0,0.08168
933.0,0.06318
934.0,0.02817
935.0,0.06723
936.0,0.03771
937.0,0.03792
938.0,0.0482
939.0,0.1192
940.0,0.1486
941.0,0.1055
942.0,0.1258
943.0,0.07764
944.0,0.08682
945.0,0.1102
946.0,0.04928
947.0,0.1088
948.0,0.07919
949.0,0.1524
950.0,0.03285
951.0,0.1511
952.0,0.07256
953.0,0.09944
954.0,0.1284
955.0,0.1013
956.0,0.1038
957.0,0.07206
958.0,0.155
959.0,0.1153
960.0,0.1292
961.0,0.1513
962.0,0.1426
963.0,0.1698
964.0,0.154
965.0,0.1693
966.0,0.1684
967.0,0.167
968.0,0.2446
969.0,0.2528
970.0,0.23
971.0,0.2724
972.0,0.2586
973.0,0.216
974.0,0.204
975.0,0.2151
976.0,0.1991
977.0,0.237
978.0,0.2208
979.0,0.2339
980.0,0.2185
981.0,0.2711
982.0,0.2558
983.0,0.2437
984.0,0.2834
985.0,0.2547
986.0,0.2909
987.0,0.2822
988.0,0.2819
989.0,0.2916
990.0,0.2801
991.0,0.2922
992.0,0.2942
993.0,0.2847
994.0,0.2944
995.0,0.2945
996.0,0.2927
997.0,0.2934
998.0,0.2918
999.0,0.2909
1000.0,0.2881
1001.0,0.2925
1002.0,0.2816
1003.0,0.2872
1004.0,0.2794
1005.0,0.2702
1006.0,0.2802
1007.0,0.2864
1008.0,0.2844
1009.0,0.2823
1010.0,0.2808
1011.0,0.285
1012.0,0.282
1013.0,0.2845
1014.0,0.2825
1015.0,0.2806
1016.0,0.2792
1017.0,0.2798
1018.0,0.2791
1019.0,0.2721
1020.0,0.2775
1021.0,0.2773
1022.0,0.2748
1023.0,0.2776
1024.0,0.2729
1025.0,0.2778
1026.0,0.2763
1027.0,0.2757
1028.0,0.2751
1029.0,0.2717
1030.0,0.274
1031.0,0.2727
1032.0,0.272
1033.0,0.2679
1034.0,0.268
1035.0,0.2688
1036.0,0.2701
1037.0,0.2657
1038.0,0.2669
1039.0,0.2666
1040.0,0.2655
1041.0,0.2665
1042.0,0.2646
1043.0,0.2637
1044.0,0.2646
1045.0,0.2609
1046.0,0.258
1047.0,0.2602
1048.0,0.2616
1049.0,0.2605
1050.0,0.2592
1051.0,0.2588
1052.0,0.2576
1053.0,0.2554
1054.0,0.2558
1055.0,0.2558
1056.0,0.2547
1057.0,0.2538
1058.0,0.2474
1059.0,0.2475
1060.0,0.247
1061.0,0.2466
1062.0,0.2478
1063.0,0.2452
1064.0,0.2481
1065.0,0.2459
1066.0,0.2414
1067.0,0.2444
1068.0,0.2388
1069.0,0.2316
1070.0,0.2392
1071.0,0.2439
1072.0,0.2403
1073.0,0.237
1074.0,0.2443
1075.0,0.2291
1076.0,0.2439
1077.0,0.2379
1078.0,0.2327
1079.0,0.2405
1080.0,0.2343
1081.0,0.2253
1082.0,0.2314
1083.0,0.2328
1084.0,0.2242
1085.0,0.2351
1086.0,0.2105
1087.0,0.22
1088.0,0.232
1089.0,0.2222
1090.0,0.2158
1091.0,0.2306
1092.0,0.2305
1093.0,0.1879
1094.0,0.21
1095.0,0.1964
1096.0,0.1859
1097.0,0.2252
1098.0,0.182
1099.0,0.191
1100.0,0.1746
1101.0,0.1777
1102.0,0.1677
1103.0,0.1646
1104.0,0.165
1105.0,0.186
1106.0,0.1302
1107.0,0.1743
1108.0,0.1406
1109.0,0.1422
1110.0,0.1715
1111.0,0.1069
1112.0,0.1416
1113.0,0.08087
1114.0,0.09098
1115.0,0.07485
1116.0,0.05467
1117.0,0.01535
1118.0,0.0609
1119.0,0.02602
1120.0,0.03225
1121.0,0.04511
1122.0,0.01562
1123.0,0.02933
1124.0,0.02469
1125.0,0.03325
1126.0,0.008415
1127.0,0.03782
1128.0,0.01901
1129.0,0.02056
1130.0,0.01262
1131.0,0.08139
1132.0,0.06196
1133.0,0.03406
1134.0,0.006372
1135.0,0.002542
1136.0,0.02666
1137.0,0.07796
1138.0,0.054
1139.0,0.09167
1140.0,0.07231
1141.0,0.05144
1142.0,0.06125
1143.0,0.09176
1144.0,0.02709
1145.0,0.03289
1146.0,0.03541
1147.0,0.009315
1148.0,0.07894
1149.0,0.05987
1150.0,0.03
1151.0,0.05355
1152.0,0.06971
1153.0,0.07093
1154.0,0.03186
1155.0,0.09545
1156.0,0.08369
1157.0,0.09817
1158.0,0.09697
1159.0,0.1072
1160.0,0.08919
1161.0,0.1161
1162.0,0.1161
1163.0,0.1679
1164.0,0.1401
1165.0,0.1282
1166.0,0.1304
1167.0,0.144
1168.0,0.1447
1169.0,0.1493
1170.0,0.1656
1171.0,0.1613
1172.0,0.1663
1173.0,0.1653
1174.0,0.1102
1175.0,0.1633
1176.0,0.184
1177.0,0.1736
1178.0,0.1245
1179.0,0.1856
1180.0,0.1608
1181.0,0.1662
1182.0,0.1081
1183.0,0.1647
1184.0,0.1521
1185.0,0.1448
1186.0,0.1783
1187.0,0.1677
1188.0,0.1089
1189.0,0.1559
1190.0,0.1746
1191.0,0.1617
1192.0,0.1775
1193.0,0.1687
1194.0,0.1748
1195.0,0.1625
1196.0,0.1549
1197.0,0.1762
1198.0,0.1597
1199.0,0.13
1200.0,0.1664
1201.0,0.1584
1202.0,0.1592
1203.0,0.157
1204.0,0.1347
1205.0,0.1645
1206.0,0.1847
1207.0,0.1579
1208.0,0.1572
1209.0,0.1608
1210.0,0.1689
1211.0,0.1587
1212.0,0.1538
1213.0,0.1771
1214.0,0.1587
1215.0,0.1552
1216.0,0.1768
1217.0,0.1711
1218.0,0.1753
1219.0,0.1725
1220.0,0.1756
1221.0,0.178
1222.0,0.1729
1223.0,0.1707
1224.0,0.1686
1225.0,0.1767
1226.0,0.1787
1227.0,0.1619
1228.0,0.1803
1229.0,0.1787
1230.0,0.1751
1231.0,0.1821
1232.0,0.1809
1233.0,0.1721
1234.0,0.1824
1235.0,0.1809
1236.0,0.1825
1237.0,0.1789
1238.0,0.1819
1239.0,0.1796
1240.0,0.1804
1241.0,0.1789
1242.0,0.1791
1243.0,0.1776
1244.0,0.1787
1245.0,0.1796
1246.0,0.1786
1247.0,0.1777
1248.0,0.1773
1249.0,0.1781
1250.0,0.1768
1251.0,0.1742
1252.0,0.1747
1253.0,0.1724
1254.0,0.17
1255.0,0.1743
1256.0,0.1677
1257.0,0.1665
1258.0,0.1709
1259.0,0.1621
1260.0,0.1633
1261.0,0.1509
1262.0,0.1448
1263.0,0.1449
1264.0,0.13
1265.0,0.1441
1266.0,0.1364
1267.0,0.1404
1268.0,0.1306
1269.0,0.06655
1270.0,0.1392
1271.0,0.1508
1272.0,0.1517
1273.0,0.1497
1274.0,0.1507
1275.0,0.1535
1276.0,0.1556
1277.0,0.1574
1278.0,0.1617
1279.0,0.1601
1280.0,0.1582
1281.0,0.1516
1282.0,0.147
1283.0,0.1581
1284.0,0.1617
1285.0,0.163
1286.0,0.1657
1287.0,0.1621
1288.0,0.1624
1289.0,0.1553
1290.0,0.1611
1291.0,0.1637
1292.0,0.1502
1293.0,0.1597
1294.0,0.1584
1295.0,0.1565
1296.0,0.1471
1297.0,0.1375
1298.0,0.1516
1299.0,0.1602
1300.0,0.1297
1301.0,0.1348
1302.0,0.1512
1303.0,0.1286
1304.0,0.1044
1305.0,0.1477
1306.0,0.1473
1307.0,0.1086
1308.0,0.1298
1309.0,0.1453
1310.0,0.1061
1311.0,0.1232
1312.0,0.119
1313.0,0.1156
1314.0,0.1015
1315.0,0.09898
1316.0,0.1202
1317.0,0.1132
1318.0,0.1253
1319.0,0.09149
1320.0,0.08999
1321.0,0.107
1322.0,0.1069
1323.0,0.07528
1324.0,0.08997
1325.0,0.1179
1326.0,0.09794
1327.0,0.09251
1328.0,0.078
1329.0,0.05407
1330.0,0.0727
1331.0,0.03896
1332.0,0.04175
1333.0,0.05908
1334.0,0.05305
1335.0,0.07469
1336.0,0.05628
1337.0,0.04878
1338.0,0.05256
1339.0,0.05304
1340.0,0.05303
1341.0,0.04839
1342.0,0.05121
1343.0,0.02894
1344.0,0.01785
1345.0,0.02558
1346.0,0.009688
1347.0,0.009343
1348.0,0.000337
1349.0,0.001405
1350.0,0.001622
1351.0,0.0002294
1352.0,3.156e-05
1353.0,9.21e-07
1354.0,4.838e-06
1355.0,1.11e-08
1356.0,4.399e-07
1357.0,6.71e-07
1358.0,1.38e-08
1359.0,7.202e-10
1360.0,4.531e-09
1361.0,1.295e-12
1362.0,2.824e-15
1363.0,4.197e-09
1364.0,1.842e-09
1365.0,8.411e-16
1366.0,2.282e-08
1367.0,1.22e-08
1368.0,6.111e-18
1369.0,6.763e-10
1370.0,2.369e-10
1371.0,9.906e-12
1372.0,6.89e-09
1373.0,2.53e-07
1374.0,1.843e-06
1375.0,3.037e-06
1376.0,4.484e-06
1377.0,1.885e-06
1378.0,2.067e-05
1379.0,8.015e-07
1380.0,8.31e-07
1381.0,1.801e-08
1382.0,5.501e-09
1383.0,6.511e-11
1384.0,6.469e-10
1385.0,8.489e-09
1386.0,3.679e-09
1387.0,1.327e-06
1388.0,3.139e-08
1389.0,7.956e-06
1390.0,6.546e-06
1391.0,4.154e-06
1392.0,2.536e-07
1393.0,1.682e-06
1394.0,3.837e-07
1395.0,1.934e-09
1396.0,2.009e-12
1397.0,5.627e-07
1398.0,2.153e-05
1399.0,1.415e-05
1400.0,6.75e-13
1401.0,3.989e-12
1402.0,8.199e-05
1403.0,8.862e-05
1404.0,2.51e-05
1405.0,6.692e-10
1406.0,5.055e-05
1407.0,6.001e-06
1408.0,4.356e-05
1409.0,9.88e-06
1410.0,1.113e-05
1411.0,8.049e-05
1412.0,0.0001313
1413.0,0.002194
1414.0,9.33e-06
1415.0,3.786e-06
1416.0,0.005204
1417.0,0.001148
1418.0,0.001153
1419.0,0.0001662
1420.0,0.000696
1421.0,0.0008161
1422.0,0.006832
1423.0,0.001234
1424.0,0.002473
1425.0,0.003323
1426.0,0.004432
1427.0,0.009528
1428.0,0.0002971
1429.0,0.006325
1430.0,0.01295
1431.0,0.01478
1432.0,0.0002288
1433.0,0.008691
