interpolation:linear
wavelength,value
280.0,9.022e-21
280.5,2.721e-19
281.0,1.418e-18
281.5,4.738e-19
282.0,1.486e-18
282.5,3.934e-18
283.0,1.269e-17
283.5,2.073e-17
284.0,3.284e-16
284.5,9.355e-16
285.0,1.838e-15
285.5,9.694e-15
286.0,3.951e-14
286.5,1.781e-13
287.0,5.084e-13
287.5,1.932e-12
288.0,5.092e-12
288.5,1.823e-11
289.0,5.511e-11
289.5,1.848e-10
290.0,5.506e-10
290.5,1.184e-09
291.0,2.692e-09
291.5,8.438e-09
292.0,2.049e-08
292.5,3.229e-08
293.0,8.065e-08
293.5,2.438e-07
294.0,4.482e-07
294.5,5.972e-07
295.0,1.19e-06
295.5,3.254e-06
296.0,6.451e-06
296.5,9.279e-06
297.0,1.286e-05
297.5,3.574e-05
298.0,5.814e-05
298.5,5.998e-05
299.0,0.0001356
299.5,0.0002353
300.0,0.0002659
300.5,0.0003967
301.0,0.0007556
301.5,0.001272
302.0,0.001125
302.5,0.002177
303.0,0.003858
303.5,0.004813
304.0,0.00449
304.5,0.006571
305.0,0.009684
305.5,0.01089
306.0,0.01047
306.5,0.01288
307.0,0.01861
307.5,0.02411
308.0,0.02537
308.5,0.02958
309.0,0.02887
309.5,0.03244
310.0,0.03232
310.5,0.05213
311.0,0.06498
311.5,0.06254
312.0,0.06156
312.5,0.07413
313.0,0.07996
313.5,0.07806
314.0,0.09636
314.5,0.08399
315.0,0.11
315.5,0.09284
316.0,0.07995
316.5,0.1134
317.0,0.1409
317.5,0.1471
318.0,0.1138
318.5,0.139
319.0,0.1636
319.5,0.1352
320.0,0.1637
320.5,0.2014
321.0,0.1767
321.5,0.1691
322.0,0.1833
322.5,0.1593
323.0,0.157
323.5,0.191
324.0,0.2226
324.5,0.227
325.0,0.1972
325.5,0.2514
326.0,0.3067
326.5,0.3053
327.0,0.305
327.5,0.2954
328.0,0.2651
328.5,0.276
329.0,0.328
329.5,0.3714
330.0,0.3754
330.5,0.3023
331.0,0.3086
331.5,0.3123
332.0,0.3353
332.5,0.3307
333.0,0.3303
333.5,0.3004
334.0,0.308
334.5,0.3535
335.0,0.3312
335.5,0.3868
336.0,0.2677
336.5,0.314
337.0,0.2582
337.5,0.3215
338.0,0.3125
338.5,0.3606
339.0,0.3569
339.5,0.3434
340.0,0.4037
340.5,0.3637
341.0,0.3548
341.5,0.3257
342.0,0.3893
342.5,0.3642
343.0,0.4006
343.5,0.3773
344.0,0.2789
344.5,0.2817
345.0,0.3728
345.5,0.3806
346.0,0.3235
346.5,0.3663
347.0,0.3933
347.5,0.318
348.0,0.3626
348.5,0.3624
349.0,0.3362
349.5,0.3329
350.0,0.4118
350.5,0.4344
351.0,0.3882
351.5,0.3773
352.0,0.4053
352.5,0.3163
353.0,0.3984
353.5,0.4261
354.0,0.4423
354.5,0.4486
355.0,0.4472
355.5,0.404
356.0,0.4228
356.5,0.361
357.0,0.2983
357.5,0.3653
358.0,0.2895
358.5,0.2474
359.0,0.3461
359.5,0.4411
360.0,0.4677
360.5,0.3738
361.0,0.3408
361.5,0.3925
362.0,0.3395
362.5,0.4699
363.0,0.4221
363.5,0.3888
364.0,0.4756
364.5,0.4066
365.0,0.4141
365.5,0.5199
366.0,0.5509
366.5,0.5177
367.0,0.5042
367.5,0.5233
368.0,0.458
368.5,0.4622
369.0,0.4992
369.5,0.5322
370.0,0.5674
370.5,0.4404
371.0,0.4707
371.5,0.5889
372.0,0.3909
372.5,0.4688
373.0,0.4769
373.5,0.3104
374.0,0.451
374.5,0.3736
375.0,0.3632
375.5,0.5423
376.0,0.4496
376.5,0.466
377.0,0.4935
377.5,0.5774
378.0,0.626
378.5,0.5917
379.0,0.4884
379.5,0.4462
380.0,0.4639
380.5,0.562
381.0,0.5633
381.5,0.4466
382.0,0.3967
382.5,0.3382
383.0,0.3132
383.5,0.3017
384.0,0.3328
384.5,0.4896
385.0,0.4856
385.5,0.4523
386.0,0.3874
386.5,0.509
387.0,0.423
387.5,0.4752
388.0,0.4388
388.5,0.4338
389.0,0.4683
389.5,0.5673
390.0,0.5694
390.5,0.5241
391.0,0.617
391.5,0.6294
392.0,0.5302
392.5,0.4748
393.0,0.2642
393.5,0.1921
394.0,0.3909
394.5,0.4971
395.0,0.6066
395.5,0.6163
396.0,0.5344
396.5,0.3125
397.0,0.2345
397.5,0.477
398.0,0.6681
398.5,0.6906
399.0,0.7479
399.5,0.7456
400.0,0.7743
401.0,0.7858
402.0,0.8292
403.0,0.7879
404.0,0.7759
405.0,0.776
406.0,0.7635
407.0,0.7513
408.0,0.7808
409.0,0.8358
410.0,0.7305
411.0,0.7914
412.0,0.8501
413.0,0.8292
414.0,0.8395
415.0,0.8418
416.0,0.8567
417.0,0.8357
418.0,0.8204
419.0,0.8313
420.0,0.8278
421.0,0.8661
422.0,0.8233
423.0,0.8043
424.0,0.8508
425.0,0.8494
426.0,0.8275
427.0,0.8121
428.0,0.7912
429.0,0.7495
430.0,0.656
431.0,0.6502
432.0,0.8396
433.0,0.8443
434.0,0.7841
435.0,0.819
436.0,0.9228
437.0,0.9105
438.0,0.8292
439.0,0.8577
440.0,0.8851
441.0,0.9172
442.0,0.9837
443.0,0.9582
444.0,0.9791
445.0,0.958
446.0,0.9142
447.0,0.9884
448.0,1.004
449.0,1.008
450.0,1.036
451.0,1.075
452.0,1.035
453.0,0.9738
454.0,1.017
455.0,1.023
456.0,1.047
457.0,1.065
458.0,1.029
459.0,1.023
460.0,1.026
461.0,1.05
462.0,1.058
463.0,1.051
464.0,1.033
465.0,1.02
466.0,1.03
467.0,1.011
468.0,1.023
469.0,1.028
470.0,0.9957
471.0,0.9944
472.0,1.048
473.0,1.034
474.0,1.036
475.0,1.045
476.0,1.014
477.0,1.017
478.0,1.045
479.0,1.038
480.0,1.04
481.0,1.06
482.0,1.065
483.0,1.052
484.0,1.031
485.0,0.9819
486.0,0.8583
487.0,0.8995
488.0,0.9868
489.0,0.9899
490.0,1.041
491.0,1.023
492.0,0.9665
493.0,0.9981
494.0,1.008
495.0,1.017
496.0,1.023
497.0,1.039
498.0,0.9903
499.0,1.003
500.0,0.9738
501.0,0.956
502.0,0.9427
503.0,0.9812
504.0,0.9567
505.0,0.9906
506.0,1.023
507.0,0.9731
508.0,0.9427
509.0,0.969
510.0,0.9638
511.0,0.9896
512.0,1.0
513.0,0.9468
514.0,0.9403
515.0,0.9309
516.0,0.9286
517.0,0.8251
518.0,0.8675
519.0,0.9099
520.0,0.943
521.0,0.952
522.0,0.9529
523.0,0.9357
524.0,0.9693
525.0,0.9808
526.0,0.937
527.0,0.883
528.0,0.9339
529.0,0.9844
530.0,0.9703
531.0,0.9847
532.0,0.9509
533.0,0.9231
534.0,0.9503
535.0,0.971
536.0,0.9799
537.0,0.9412
538.0,0.9578
539.0,0.9498
540.0,0.9106
541.0,0.9168
542.0,0.9455
543.0,0.9355
544.0,0.9518
545.0,0.9488
546.0,0.9531
547.0,0.9526
548.0,0.9412
549.0,0.944
550.0,0.9552
551.0,0.9436
552.0,0.9502
553.0,0.9332
554.0,0.9555
555.0,0.9574
556.0,0.945
557.0,0.9157
558.0,0.9088
559.0,0.8919
560.0,0.9031
561.0,0.9148
562.0,0.9082
563.0,0.9331
564.0,0.9077
565.0,0.9
566.0,0.8868
567.0,0.9036
568.0,0.8957
569.0,0.8747
570.0,0.8744
571.0,0.8691
572.0,0.8901
573.0,0.8997
574.0,0.8969
575.0,0.8802
576.0,0.8721
577.0,0.8816
578.0,0.8683
579.0,0.8716
580.0,0.888
581.0,0.8924
582.0,0.9092
583.0,0.9113
584.0,0.9192
585.0,0.8967
586.0,0.8783
587.0,0.8976
588.0,0.8761
589.0,0.7768
590.0,0.8123
591.0,0.8592
592.0,0.8486
593.0,0.8608
594.0,0.855
595.0,0.8341
596.0,0.8665
597.0,0.8572
598.0,0.8549
599.0,0.8556
600.0,0.8567
601.0,0.8496
602.0,0.8438
603.0,0.8577
604.0,0.8719
605.0,0.8674
606.0,0.8638
607.0,0.8723
608.0,0.8626
609.0,0.864
610.0,0.8578
611.0,0.8622
612.0,0.8597
613.0,0.8488
614.0,0.8372
615.0,0.8554
616.0,0.8272
617.0,0.8255
618.0,0.8572
619.0,0.8485
620.0,0.8539
621.0,0.8548
622.0,0.8448
623.0,0.832
624.0,0.8177
625.0,0.8158
626.0,0.8279
627.0,0.8373
628.0,0.7832
629.0,0.8179
630.0,0.7991
631.0,0.8167
632.0,0.8069
633.0,0.8312
634.0,0.823
635.0,0.8358
636.0,0.8246
637.0,0.8381
638.0,0.8461
639.0,0.8365
640.0,0.8284
641.0,0.8278
642.0,0.824
643.0,0.8351
644.0,0.8323
645.0,0.8337
646.0,0.8144
647.0,0.805
648.0,0.8058
649.0,0.7903
650.0,0.7937
651.0,0.828
652.0,0.794
653.0,0.817
654.0,0.8078
655.0,0.778
656.0,0.6894
657.0,0.7079
658.0,0.7932
659.0,0.7988
660.0,0.8021
661.0,0.8078
662.0,0.8095
663.0,0.7934
664.0,0.8027
665.0,0.8033
666.0,0.8039
667.0,0.8031
668.0,0.8034
669.0,0.8158
670.0,0.8122
671.0,0.812
672.0,0.8051
673.0,0.8172
674.0,0.8141
675.0,0.8067
676.0,0.8122
677.0,0.8041
678.0,0.8064
679.0,0.7933
680.0,0.7997
681.0,0.7944
682.0,0.7934
683.0,0.7919
684.0,0.7879
685.0,0.7946
686.0,0.7899
687.0,0.5295
688.0,0.6182
689.0,0.6204
690.0,0.6499
691.0,0.6831
692.0,0.7072
693.0,0.7015
694.0,0.6956
695.0,0.7238
696.0,0.7248
697.0,0.7684
698.0,0.7565
699.0,0.7389
700.0,0.73
701.0,0.7227
702.0,0.7275
703.0,0.7289
704.0,0.7519
705.0,0.753
706.0,0.7522
707.0,0.7528
708.0,0.7544
709.0,0.7553
710.0,0.7553
711.0,0.7543
712.0,0.7519
713.0,0.7444
714.0,0.7472
715.0,0.7238
716.0,0.7243
717.0,0.63
718.0,0.5789
719.0,0.5305
720.0,0.5559
721.0,0.6125
722.0,0.6995
723.0,0.6518
724.0,0.588
725.0,0.5788
726.0,0.6058
727.0,0.614
728.0,0.5774
729.0,0.5984
730.0,0.6332
731.0,0.606
732.0,0.6475
733.0,0.6848
734.0,0.7009
735.0,0.6865
736.0,0.6856
737.0,0.6883
738.0,0.6985
739.0,0.6847
740.0,0.7024
741.0,0.6954
742.0,0.6959
743.0,0.7136
744.0,0.7115
745.0,0.7116
746.0,0.7149
747.0,0.7165
748.0,0.715
749.0,0.7068
750.0,0.7064
751.0,0.6992
752.0,0.7022
753.0,0.7058
754.0,0.7074
755.0,0.7033
756.0,0.703
757.0,0.704
758.0,0.6953
759.0,0.6814
760.0,0.1171
761.0,0.062
762.0,0.3524
763.0,0.1778
764.0,0.2658
765.0,0.3524
766.0,0.4311
767.0,0.5424
768.0,0.6248
769.0,0.6376
770.0,0.659
771.0,0.6642
772.0,0.6655
773.0,0.6702
774.0,0.6669
775.0,0.6618
776.0,0.6699
777.0,0.6611
778.0,0.6571
779.0,0.6576
780.0,0.6539
781.0,0.6546
782.0,0.6587
783.0,0.6472
784.0,0.6503
785.0,0.6455
786.0,0.6526
787.0,0.6414
788.0,0.6335
789.0,0.6332
790.0,0.6166
791.0,0.6217
792.0,0.6171
793.0,0.6072
794.0,0.6173
795.0,0.6278
796.0,0.6088
797.0,0.6096
798.0,0.6271
799.0,0.6231
800.0,0.6124
801.0,0.6105
802.0,0.6088
803.0,0.6042
804.0,0.605
805.0,0.603
806.0,0.6198
807.0,0.6123
808.0,0.6129
809.0,0.6015
810.0,0.5966
811.0,0.5975
812.0,0.5806
813.0,0.5687
814.0,0.5009
815.0,0.4978
816.0,0.4634
817.0,0.4718
818.0,0.4543
819.0,0.5074
820.0,0.4781
821.0,0.5581
822.0,0.5422
823.0,0.3699
824.0,0.5267
825.0,0.5484
826.0,0.5278
827.0,0.5568
828.0,0.4727
829.0,0.5246
830.0,0.5178
831.0,0.5196
832.0,0.5037
833.0,0.5357
834.0,0.5169
835.0,0.5674
836.0,0.5434
837.0,0.569
838.0,0.5514
839.0,0.5604
840.0,0.5727
841.0,0.5646
842.0,0.5657
843.0,0.5654
844.0,0.5575
845.0,0.5764
846.0,0.5738
847.0,0.5631
848.0,0.5597
849.0,0.5437
850.0,0.521
851.0,0.5516
852.0,0.5477
853.0,0.5272
854.0,0.4552
855.0,0.5001
856.0,0.5465
857.0,0.5587
858.0,0.5546
859.0,0.5551
860.0,0.5561
861.0,0.553
862.0,0.5617
863.0,0.575
864.0,0.5462
865.0,0.5415
866.0,0.4869
867.0,0.5081
868.0,0.5529
869.0,0.5414
870.0,0.5568
871.0,0.5493
872.0,0.5473
873.0,0.5462
874.0,0.5397
875.0,0.5288
876.0,0.5343
877.0,0.5397
878.0,0.5455
879.0,0.5372
880.0,0.5256
881.0,0.5177
882.0,0.5289
883.0,0.5306
884.0,0.5282
885.0,0.5322
886.0,0.5071
887.0,0.5126
888.0,0.5201
889.0,0.5261
890.0,0.5216
891.0,0.5207
892.0,0.5056
893.0,0.4897
894.0,0.4723
895.0,0.446
896.0,0.42
897.0,0.3605
898.0,0.3935
899.0,0.2989
900.0,0.4032
901.0,0.3133
902.0,0.3683
903.0,0.3717
904.0,0.4687
905.0,0.4525
906.0,0.4233
907.0,0.3434
908.0,0.3503
909.0,0.3797
910.0,0.3353
911.0,0.3577
912.0,0.3741
913.0,0.3403
914.0,0.3375
915.0,0.3658
916.0,0.3095
917.0,0.3934
918.0,0.3173
919.0,0.4007
920.0,0.4051
921.0,0.4214
922.0,0.3763
923.0,0.4071
924.0,0.3856
925.0,0.3772
926.0,0.3813
927.0,0.4274
928.0,0.3121
929.0,0.2844
930.0,0.2227
931.0,0.2112
932.0,0.1512
933.0,0.1224
934.0,0.06607
935.0,0.1256
936.0,0.07779
937.0,0.07875
938.0,0.09713
939.0,0.2046
940.0,0.2467
941.0,0.1853
942.0,0.2152
943.0,0.1408
944.0,0.1489
945.0,0.1913
946.0,0.0963
947.0,0.1919
948.0,0.1408
949.0,0.2579
950.0,0.07002
951.0,0.2541
952.0,0.1351
953.0,0.1754
954.0,0.2162
955.0,0.1776
956.0,0.173
957.0,0.1352
958.0,0.2466
959.0,0.1947
960.0,0.2182
961.0,0.2459
962.0,0.2325
963.0,0.2689
964.0,0.2461
965.0,0.268
966.0,0.2678
967.0,0.2666
968.0,0.3603
969.0,0.3761
970.0,0.345
971.0,0.3962
972.0,0.3788
973.0,0.3285
974.0,0.3116
975.0,0.3239
976.0,0.3069
977.0,0.3506
978.0,0.3325
979.0,0.3487
980.0,0.3276
981.0,0.394
982.0,0.3762
983.0,0.3609
984.0,0.4065
985.0,0.3748
986.0,0.4139
987.0,0.4055
988.0,0.4047
989.0,0.4129
990.0,0.4023
991.0,0.4141
992.0,0.4165
993.0,0.4069
994.0,0.4164
995.0,0.416
996.0,0.414
997.0,0.4147
998.0,0.4127
999.0,0.4112
1000.0,0.4082
1001.0,0.4134
1002.0,0.4017
1003.0,0.4061
1004.0,0.3961
1005.0,0.3817
1006.0,0.3965
1007.0,0.405
1008.0,0.4027
1009.0,0.4005
1010.0,0.3987
1011.0,0.4029
1012.0,0.3994
1013.0,0.402
1014.0,0.3992
1015.0,0.3965
1016.0,0.3947
1017.0,0.3957
1018.0,0.3943
1019.0,0.3857
1020.0,0.3922
1021.0,0.3916
1022.0,0.3886
1023.0,0.3927
1024.0,0.3874
1025.0,0.3924
1026.0,0.3907
1027.0,0.3898
1028.0,0.389
1029.0,0.3844
1030.0,0.3871
1031.0,0.3855
1032.0,0.3844
1033.0,0.3786
1034.0,0.3786
1035.0,0.3798
1036.0,0.3818
1037.0,0.3756
1038.0,0.3772
1039.0,0.377
1040.0,0.3755
1041.0,0.377
1042.0,0.3743
1043.0,0.3731
1044.0,0.3744
1045.0,0.3693
1046.0,0.3653
1047.0,0.3685
1048.0,0.3705
1049.0,0.3692
1050.0,0.3675
1051.0,0.3669
1052.0,0.3654
1053.0,0.3625
1054.0,0.3633
1055.0,0.3635
1056.0,0.3622
1057.0,0.361
1058.0,0.3521
1059.0,0.3525
1060.0,0.3519
1061.0,0.3515
1062.0,0.3533
1063.0,0.3498
1064.0,0.3539
1065.0,0.3513
1066.0,0.3444
1067.0,0.3489
1068.0,0.3412
1069.0,0.3307
1070.0,0.3419
1071.0,0.3473
1072.0,0.3432
1073.0,0.3383
1074.0,0.3472
1075.0,0.3294
1076.0,0.3469
1077.0,0.3405
1078.0,0.3339
1079.0,0.3414
1080.0,0.3352
1081.0,0.3243
1082.0,0.3298
1083.0,0.3309
1084.0,0.3234
1085.0,0.336
1086.0,0.306
1087.0,0.3163
1088.0,0.3305
1089.0,0.32
1090.0,0.3127
1091.0,0.3293
1092.0,0.3286
1093.0,0.2775
1094.0,0.3005
1095.0,0.2892
1096.0,0.2766
1097.0,0.321
1098.0,0.2721
1099.0,0.2841
1100.0,0.2636
1101.0,0.267
1102.0,0.2547
1103.0,0.252
1104.0,0.2524
1105.0,0.2774
1106.0,0.2103
1107.0,0.2631
1108.0,0.2219
1109.0,0.2225
1110.0,0.2607
1111.0,0.1753
1112.0,0.2209
1113.0,0.139
1114.0,0.1556
1115.0,0.1289
1116.0,0.1019
1117.0,0.03635
1118.0,0.1112
1119.0,0.0543
1120.0,0.06828
1121.0,0.09118
1122.0,0.03759
1123.0,0.06175
1124.0,0.0521
1125.0,0.0682
1126.0,0.02295
1127.0,0.077
1128.0,0.04521
1129.0,0.04809
1130.0,0.03132
1131.0,0.1481
1132.0,0.1158
1133.0,0.07226
1134.0,0.01782
1135.0,0.006716
1136.0,0.05987
1137.0,0.1451
1138.0,0.102
1139.0,0.1543
1140.0,0.1281
1141.0,0.09695
1142.0,0.112
1143.0,0.1599
1144.0,0.0548
1145.0,0.06972
1146.0,0.07518
1147.0,0.02562
1148.0,0.1383
1149.0,0.1098
1150.0,0.05905
1151.0,0.1012
1152.0,0.1253
1153.0,0.1227
1154.0,0.06745
1155.0,0.1609
1156.0,0.1445
1157.0,0.1628
1158.0,0.161
1159.0,0.1742
1160.0,0.1483
1161.0,0.1837
1162.0,0.1846
1163.0,0.2507
1164.0,0.2145
1165.0,0.2019
1166.0,0.2009
1167.0,0.219
1168.0,0.2213
1169.0,0.2267
1170.0,0.2467
1171.0,0.2406
1172.0,0.2451
1173.0,0.2462
1174.0,0.1751
1175.0,0.2407
1176.0,0.2649
1177.0,0.2541
1178.0,0.1904
1179.0,0.267
1180.0,0.238
1181.0,0.2456
1182.0,0.1691
1183.0,0.242
1184.0,0.2266
1185.0,0.2186
1186.0,0.2595
1187.0,0.247
1188.0,0.1719
1189.0,0.2301
1190.0,0.2536
1191.0,0.2406
1192.0,0.2572
1193.0,0.2464
1194.0,0.254
1195.0,0.2401
1196.0,0.2312
1197.0,0.2541
1198.0,0.2325
1199.0,0.1976
1200.0,0.2433
1201.0,0.2346
1202.0,0.2333
1203.0,0.2312
1204.0,0.2022
1205.0,0.2387
1206.0,0.2637
1207.0,0.2326
1208.0,0.229
1209.0,0.2337
1210.0,0.2435
1211.0,0.2319
1212.0,0.229
1213.0,0.255
1214.0,0.2345
1215.0,0.2301
1216.0,0.2542
1217.0,0.2475
1218.0,0.2522
1219.0,0.2491
1220.0,0.2524
1221.0,0.2549
1222.0,0.2483
1223.0,0.246
1224.0,0.2445
1225.0,0.2533
1226.0,0.255
1227.0,0.2352
1228.0,0.2563
1229.0,0.255
1230.0,0.2507
1231.0,0.2578
1232.0,0.2563
1233.0,0.2475
1234.0,0.2576
1235.0,0.256
1236.0,0.2578
1237.0,0.2542
1238.0,0.257
1239.0,0.2537
1240.0,0.2546
1241.0,0.2534
1242.0,0.2529
1243.0,0.2508
1244.0,0.2526
1245.0,0.2537
1246.0,0.2522
1247.0,0.2512
1248.0,0.251
1249.0,0.2518
1250.0,0.2503
1251.0,0.2471
1252.0,0.2471
1253.0,0.2452
1254.0,0.2427
1255.0,0.2469
1256.0,0.24
1257.0,0.2386
1258.0,0.2431
1259.0,0.2343
1260.0,0.2355
1261.0,0.2223
1262.0,0.2156
1263.0,0.216
1264.0,0.1994
1265.0,0.2147
1266.0,0.2065
1267.0,0.2102
1268.0,0.1993
1269.0,0.1236
1270.0,0.2094
1271.0,0.2216
1272.0,0.2223
1273.0,0.2199
1274.0,0.2206
1275.0,0.2238
1276.0,0.226
1277.0,0.2275
1278.0,0.2319
1279.0,0.2298
1280.0,0.2269
1281.0,0.2165
1282.0,0.2086
1283.0,0.2246
1284.0,0.23
1285.0,0.2315
1286.0,0.2347
1287.0,0.231
1288.0,0.231
1289.0,0.2237
1290.0,0.2289
1291.0,0.2321
1292.0,0.2181
1293.0,0.2276
1294.0,0.226
1295.0,0.2249
1296.0,0.2148
1297.0,0.2031
1298.0,0.2187
1299.0,0.2279
1300.0,0.1929
1301.0,0.1988
1302.0,0.2179
1303.0,0.1904
1304.0,0.1623
1305.0,0.2135
1306.0,0.2135
1307.0,0.1658
1308.0,0.1907
1309.0,0.2118
1310.0,0.1627
1311.0,0.1828
1312.0,0.1778
1313.0,0.1744
1314.0,0.156
1315.0,0.154
1316.0,0.1799
1317.0,0.1704
1318.0,0.1852
1319.0,0.1446
1320.0,0.1401
1321.0,0.1633
1322.0,0.1649
1323.0,0.1239
1324.0,0.1418
1325.0,0.1773
1326.0,0.152
1327.0,0.145
1328.0,0.1249
1329.0,0.09352
1330.0,0.1219
1331.0,0.07316
1332.0,0.0757
1333.0,0.1055
1334.0,0.08954
1335.0,0.1234
1336.0,0.09735
1337.0,0.08595
1338.0,0.09302
1339.0,0.09267
1340.0,0.09026
1341.0,0.08784
1342.0,0.09229
1343.0,0.06186
1344.0,0.03708
1345.0,0.05352
1346.0,0.02616
1347.0,0.02652
1348.0,0.001666
1349.0,0.006042
1350.0,0.006319
1351.0,0.001492
1352.0,0.0003911
1353.0,1.936e-05
1354.0,6.811e-05
1355.0,5.161e-07
1356.0,9.442e-06
1357.0,1.44e-05
1358.0,6.129e-07
1359.0,7.38e-08
1360.0,2.759e-07
1361.0,2.796e-10
1362.0,7.348e-13
1363.0,3.687e-07
1364.0,1.523e-07
1365.0,2.448e-13
1366.0,1.633e-06
1367.0,6.744e-07
1368.0,1.708e-15
1369.0,5.682e-08
1370.0,2.75e-08
1371.0,1.525e-09
1372.0,3.712e-07
1373.0,7.749e-06
1374.0,3.685e-05
1375.0,6.695e-05
1376.0,6.137e-05
1377.0,2.798e-05
1378.0,0.000277
1379.0,1.175e-05
1380.0,1.67e-05
1381.0,4.306e-07
1382.0,3.33e-07
1383.0,4.904e-09
1384.0,6.377e-08
1385.0,3.222e-07
1386.0,2.928e-07
1387.0,3.775e-05
1388.0,7.447e-07
1389.0,0.0001314
1390.0,0.0001131
1391.0,7.507e-05
1392.0,4.845e-06
1393.0,2.605e-05
1394.0,1.299e-05
1395.0,9.305e-08
1396.0,4.085e-10
1397.0,1.028e-05
1398.0,0.0003104
1399.0,0.0001971
1400.0,1.72e-10
1401.0,7.424e-10
1402.0,0.0005679
1403.0,0.0007092
1404.0,0.0002155
1405.0,4.455e-08
1406.0,0.0005546
1407.0,4.939e-05
1408.0,0.0004546
1409.0,0.0001494
1410.0,0.0001213
1411.0,0.0006245
1412.0,0.000852
1413.0,0.009111
1414.0,9.601e-05
1415.0,4.56e-05
1416.0,0.01541
1417.0,0.004494
1418.0,0.005089
1419.0,0.0007824
1420.0,0.003108
1421.0,0.003364
1422.0,0.02016
1423.0,0.003861
1424.0,0.007286
1425.0,0.01064
1426.0,0.01229
1427.0,0.0231
1428.0,0.001559
1429.0,0.01702
1430.0,0.02968
1431.0,0.03277
1432.0,0.001224
1433.0,0.0206
1434.0,0.01036
1435.0,0.009936
1436.0,0.01983
1437.0,0.0152
1438.0,0.006239
1439.0,0.02725
1440.0,0.0204
1441.0,0.0152
1442.0,0.01689
1443.0,0.02176
