interpolation:linear
wavelength,value
280.0,1.046e-21
280.5,3.366e-20
281.0,1.791e-19
281.5,5.242e-19
282.0,9.458e-19
282.5,2.351e-18
283.0,7.411e-18
283.5,1.204e-17
284.0,1.948e-16
284.5,5.636e-16
285.0,1.107e-15
285.5,5.34e-15
286.0,2.134e-14
286.5,9.448e-14
287.0,2.683e-13
287.5,1.021e-12
288.0,3.152e-12
288.5,9.847e-12
289.0,2.675e-11
289.5,8.183e-11
290.0,2.288e-10
290.5,4.686e-10
291.0,1.01e-09
291.5,2.905e-09
292.0,6.034e-09
292.5,8.684e-09
293.0,1.92e-08
293.5,4.851e-08
294.0,7.777e-08
294.5,1.024e-07
295.0,1.771e-07
295.5,4.024e-07
296.0,7.259e-07
296.5,1.048e-06
297.0,1.463e-06
297.5,4.146e-06
298.0,6.904e-06
298.5,7.287e-06
299.0,1.692e-05
299.5,3.115e-05
300.0,3.658e-05
300.5,5.702e-05
301.0,0.000118
301.5,0.0002176
302.0,0.0002032
302.5,0.000408
303.0,0.0007609
303.5,0.0009837
304.0,0.0009439
304.5,0.001487
305.0,0.002431
305.5,0.002919
306.0,0.002878
306.5,0.003694
307.0,0.005857
307.5,0.008297
308.0,0.008856
308.5,0.01079
309.0,0.01084
309.5,0.01289
310.0,0.01319
310.5,0.02155
311.0,0.02745
311.5,0.02668
312.0,0.02753
312.5,0.0342
313.0,0.0375
313.5,0.03607
314.0,0.04622
314.5,0.04234
315.0,0.05597
315.5,0.04611
316.0,0.04134
316.5,0.06071
317.0,0.07536
317.5,0.07795
318.0,0.06175
318.5,0.07892
319.0,0.09503
319.5,0.07571
320.0,0.09119
320.5,0.1175
321.0,0.1074
321.5,0.1032
322.0,0.1071
322.5,0.09331
323.0,0.09463
323.5,0.1182
324.0,0.1384
324.5,0.1395
325.0,0.1196
325.5,0.156
326.0,0.1914
326.5,0.1935
327.0,0.1923
327.5,0.185
328.0,0.1628
328.5,0.1736
329.0,0.2103
329.5,0.2396
330.0,0.2412
330.5,0.1914
331.0,0.1945
331.5,0.199
332.0,0.2171
332.5,0.2157
333.0,0.2146
333.5,0.193
334.0,0.1976
334.5,0.2298
335.0,0.217
335.5,0.2537
336.0,0.1756
336.5,0.2051
337.0,0.1678
337.5,0.2086
338.0,0.205
338.5,0.2369
339.0,0.2347
339.5,0.2258
340.0,0.2652
340.5,0.2393
341.0,0.2336
341.5,0.2147
342.0,0.2567
342.5,0.2403
343.0,0.2643
343.5,0.2489
344.0,0.1839
344.5,0.1858
345.0,0.2462
345.5,0.2516
346.0,0.214
346.5,0.2425
347.0,0.2603
347.5,0.2105
348.0,0.2402
348.5,0.2403
349.0,0.223
349.5,0.2209
350.0,0.2734
350.5,0.2885
351.0,0.2578
351.5,0.2505
352.0,0.2693
352.5,0.2103
353.0,0.2651
353.5,0.2836
354.0,0.2945
354.5,0.2988
355.0,0.2979
355.5,0.2693
356.0,0.2819
356.5,0.2408
357.0,0.199
357.5,0.2437
358.0,0.1932
358.5,0.1652
359.0,0.2311
359.5,0.2945
360.0,0.3123
360.5,0.2497
361.0,0.2278
361.5,0.2625
362.0,0.2272
362.5,0.3147
363.0,0.2828
363.5,0.2607
364.0,0.319
364.5,0.2728
365.0,0.2779
365.5,0.349
366.0,0.37
366.5,0.3479
367.0,0.3389
367.5,0.3519
368.0,0.3081
368.5,0.311
369.0,0.3361
369.5,0.3584
370.0,0.3822
370.5,0.2968
371.0,0.3173
371.5,0.3971
372.0,0.2637
372.5,0.3163
373.0,0.3219
373.5,0.2096
374.0,0.3047
374.5,0.2525
375.0,0.2455
375.5,0.3667
376.0,0.3041
376.5,0.3152
377.0,0.3339
377.5,0.3908
378.0,0.4238
378.5,0.4007
379.0,0.3308
379.5,0.3022
380.0,0.3143
380.5,0.3809
381.0,0.382
381.5,0.303
382.0,0.2692
382.5,0.2297
383.0,0.2128
383.5,0.205
384.0,0.2263
384.5,0.333
385.0,0.3304
385.5,0.3078
386.0,0.2638
386.5,0.3467
387.0,0.2882
387.5,0.3238
388.0,0.2991
388.5,0.2958
389.0,0.3195
389.5,0.3871
390.0,0.3887
390.5,0.3579
391.0,0.4214
391.5,0.43
392.0,0.3623
392.5,0.3246
393.0,0.1807
393.5,0.1314
394.0,0.2675
394.5,0.3403
395.0,0.4154
395.5,0.4221
396.0,0.3661
396.5,0.2141
397.0,0.1608
397.5,0.3271
398.0,0.4582
398.5,0.4738
399.0,0.5134
399.5,0.5119
400.0,0.5316
401.0,0.538
402.0,0.5681
403.0,0.5402
404.0,0.5323
405.0,0.5326
406.0,0.5244
407.0,0.5164
408.0,0.5368
409.0,0.5749
410.0,0.5028
411.0,0.545
412.0,0.586
413.0,0.5717
414.0,0.5791
415.0,0.5811
416.0,0.5918
417.0,0.5776
418.0,0.5672
419.0,0.5751
420.0,0.5729
421.0,0.5997
422.0,0.5703
423.0,0.5574
424.0,0.5898
425.0,0.5891
426.0,0.5744
427.0,0.564
428.0,0.5496
429.0,0.5211
430.0,0.4563
431.0,0.4524
432.0,0.5845
433.0,0.5881
434.0,0.5462
435.0,0.5706
436.0,0.6435
437.0,0.6354
438.0,0.5789
439.0,0.5985
440.0,0.618
441.0,0.6408
442.0,0.6875
443.0,0.6696
444.0,0.6846
445.0,0.6698
446.0,0.6399
447.0,0.6923
448.0,0.7029
449.0,0.7064
450.0,0.7265
451.0,0.7538
452.0,0.7265
453.0,0.6836
454.0,0.7141
455.0,0.7187
456.0,0.736
457.0,0.7484
458.0,0.7227
459.0,0.7192
460.0,0.721
461.0,0.7378
462.0,0.7439
463.0,0.7389
464.0,0.7273
465.0,0.7186
466.0,0.726
467.0,0.7127
468.0,0.7211
469.0,0.725
470.0,0.7019
471.0,0.7012
472.0,0.7388
473.0,0.7293
474.0,0.73
475.0,0.7359
476.0,0.7134
477.0,0.7151
478.0,0.7352
479.0,0.731
480.0,0.7327
481.0,0.7469
482.0,0.7513
483.0,0.7428
484.0,0.7279
485.0,0.6939
486.0,0.6069
487.0,0.6364
488.0,0.6982
489.0,0.7002
490.0,0.7369
491.0,0.7245
492.0,0.6842
493.0,0.7067
494.0,0.7139
495.0,0.7201
496.0,0.7245
497.0,0.7358
498.0,0.7013
499.0,0.7101
500.0,0.6892
501.0,0.6762
502.0,0.6661
503.0,0.6926
504.0,0.6731
505.0,0.6988
506.0,0.7213
507.0,0.6865
508.0,0.6657
509.0,0.6849
510.0,0.6816
511.0,0.7003
512.0,0.7081
513.0,0.6703
514.0,0.6659
515.0,0.6593
516.0,0.6576
517.0,0.5845
518.0,0.6144
519.0,0.6444
520.0,0.6678
521.0,0.6741
522.0,0.6745
523.0,0.6623
524.0,0.6856
525.0,0.6932
526.0,0.6621
527.0,0.6235
528.0,0.6591
529.0,0.6945
530.0,0.6844
531.0,0.6943
532.0,0.6704
533.0,0.6508
534.0,0.6702
535.0,0.685
536.0,0.6915
537.0,0.6645
538.0,0.6763
539.0,0.6706
540.0,0.6429
541.0,0.6466
542.0,0.6665
543.0,0.66
544.0,0.671
545.0,0.669
546.0,0.6715
547.0,0.6716
548.0,0.6637
549.0,0.6659
550.0,0.6739
551.0,0.6658
552.0,0.6704
553.0,0.6583
554.0,0.674
555.0,0.6752
556.0,0.6664
557.0,0.6455
558.0,0.6403
559.0,0.6281
560.0,0.6357
561.0,0.6437
562.0,0.6387
563.0,0.6557
564.0,0.6375
565.0,0.6317
566.0,0.6222
567.0,0.6336
568.0,0.6269
569.0,0.6101
570.0,0.6102
571.0,0.607
572.0,0.6203
573.0,0.6267
574.0,0.6244
575.0,0.6123
576.0,0.6068
577.0,0.6136
578.0,0.6049
579.0,0.6082
580.0,0.6212
581.0,0.6254
582.0,0.6382
583.0,0.6406
584.0,0.6466
585.0,0.6312
586.0,0.6182
587.0,0.6312
588.0,0.6134
589.0,0.5387
590.0,0.5638
591.0,0.5994
592.0,0.5902
593.0,0.6011
594.0,0.596
595.0,0.5796
596.0,0.6063
597.0,0.5988
598.0,0.5984
599.0,0.5994
600.0,0.6013
601.0,0.5971
602.0,0.5932
603.0,0.6034
604.0,0.6135
605.0,0.6106
606.0,0.6085
607.0,0.615
608.0,0.6086
609.0,0.61
610.0,0.6061
611.0,0.6095
612.0,0.608
613.0,0.6005
614.0,0.5927
615.0,0.6059
616.0,0.5862
617.0,0.5853
618.0,0.608
619.0,0.602
620.0,0.6058
621.0,0.606
622.0,0.5986
623.0,0.5892
624.0,0.5794
625.0,0.5781
626.0,0.5866
627.0,0.5923
628.0,0.5424
629.0,0.5746
630.0,0.5609
631.0,0.5772
632.0,0.571
633.0,0.5899
634.0,0.5853
635.0,0.595
636.0,0.5879
637.0,0.598
638.0,0.6046
639.0,0.5982
640.0,0.5929
641.0,0.5929
642.0,0.5907
643.0,0.5987
644.0,0.5972
645.0,0.5979
646.0,0.5827
647.0,0.5728
648.0,0.5733
649.0,0.5619
650.0,0.5684
651.0,0.5937
652.0,0.5651
653.0,0.586
654.0,0.5799
655.0,0.5563
656.0,0.4944
657.0,0.5079
658.0,0.5704
659.0,0.575
660.0,0.5777
661.0,0.5818
662.0,0.5823
663.0,0.5711
664.0,0.5789
665.0,0.5802
666.0,0.581
667.0,0.5809
668.0,0.5816
669.0,0.5908
670.0,0.5885
671.0,0.5885
672.0,0.5836
673.0,0.5926
674.0,0.5906
675.0,0.5854
676.0,0.5896
677.0,0.5838
678.0,0.5857
679.0,0.5763
680.0,0.581
681.0,0.5773
682.0,0.5766
683.0,0.5755
684.0,0.5726
685.0,0.5777
686.0,0.5741
687.0,0.3358
688.0,0.4142
689.0,0.4164
690.0,0.4439
691.0,0.4756
692.0,0.4998
693.0,0.4951
694.0,0.4915
695.0,0.5175
696.0,0.5184
697.0,0.557
698.0,0.5481
699.0,0.5305
700.0,0.5239
701.0,0.5169
702.0,0.5223
703.0,0.5235
704.0,0.543
705.0,0.5438
706.0,0.5444
707.0,0.5452
708.0,0.5463
709.0,0.5488
710.0,0.5479
711.0,0.5478
712.0,0.547
713.0,0.5407
714.0,0.5429
715.0,0.524
716.0,0.5238
717.0,0.4378
718.0,0.4001
719.0,0.3651
720.0,0.3809
721.0,0.4303
722.0,0.5028
723.0,0.4627
724.0,0.4106
725.0,0.4018
726.0,0.4213
727.0,0.4315
728.0,0.4
729.0,0.4208
730.0,0.4446
731.0,0.424
732.0,0.4596
733.0,0.4923
734.0,0.5058
735.0,0.4944
736.0,0.4936
737.0,0.4956
738.0,0.5074
739.0,0.4974
740.0,0.5117
741.0,0.5074
742.0,0.5087
743.0,0.5218
744.0,0.5209
745.0,0.5214
746.0,0.5237
747.0,0.525
748.0,0.5239
749.0,0.518
750.0,0.5177
751.0,0.5125
752.0,0.5148
753.0,0.5174
754.0,0.5186
755.0,0.5156
756.0,0.5155
757.0,0.5162
758.0,0.5097
759.0,0.4967
760.0,0.04748
761.0,0.02047
762.0,0.2073
763.0,0.0828
764.0,0.1417
765.0,0.2072
766.0,0.2749
767.0,0.3695
768.0,0.4457
769.0,0.4595
770.0,0.4802
771.0,0.4864
772.0,0.4881
773.0,0.4917
774.0,0.4895
775.0,0.4859
776.0,0.4918
777.0,0.4854
778.0,0.4824
779.0,0.4828
780.0,0.4802
781.0,0.4807
782.0,0.4837
783.0,0.4754
784.0,0.4778
785.0,0.474
786.0,0.4791
787.0,0.4687
788.0,0.4619
789.0,0.4615
790.0,0.4464
791.0,0.4531
792.0,0.4502
793.0,0.4426
794.0,0.4531
795.0,0.46
796.0,0.4419
797.0,0.4422
798.0,0.459
799.0,0.4553
800.0,0.4464
801.0,0.4441
802.0,0.4428
803.0,0.439
804.0,0.44
805.0,0.4398
806.0,0.4541
807.0,0.4482
808.0,0.4488
809.0,0.4389
810.0,0.4343
811.0,0.4327
812.0,0.4177
813.0,0.4076
814.0,0.3505
815.0,0.3488
816.0,0.3237
817.0,0.3303
818.0,0.3161
819.0,0.3604
820.0,0.3368
821.0,0.4037
822.0,0.3905
823.0,0.2502
824.0,0.3755
825.0,0.3966
826.0,0.3783
827.0,0.4025
828.0,0.3318
829.0,0.3767
830.0,0.3709
831.0,0.3723
832.0,0.3592
833.0,0.3867
834.0,0.3699
835.0,0.4133
836.0,0.3911
837.0,0.4147
838.0,0.3995
839.0,0.4089
840.0,0.4185
841.0,0.4115
842.0,0.4139
843.0,0.4153
844.0,0.4086
845.0,0.4236
846.0,0.422
847.0,0.4146
848.0,0.4113
849.0,0.3996
850.0,0.383
851.0,0.4047
852.0,0.4022
853.0,0.3878
854.0,0.3343
855.0,0.368
856.0,0.4018
857.0,0.4113
858.0,0.408
859.0,0.4087
860.0,0.4097
861.0,0.4074
862.0,0.4139
863.0,0.4236
864.0,0.4025
865.0,0.3991
866.0,0.3588
867.0,0.3745
868.0,0.4075
869.0,0.3991
870.0,0.4105
871.0,0.4049
872.0,0.4035
873.0,0.4027
874.0,0.3979
875.0,0.3898
876.0,0.3938
877.0,0.3979
878.0,0.4021
879.0,0.3959
880.0,0.3874
881.0,0.3813
882.0,0.3894
883.0,0.391
884.0,0.389
885.0,0.392
886.0,0.3723
887.0,0.3772
888.0,0.3822
889.0,0.3877
890.0,0.383
891.0,0.3831
892.0,0.3702
893.0,0.3568
894.0,0.3403
895.0,0.3167
896.0,0.2968
897.0,0.249
898.0,0.2748
899.0,0.2022
900.0,0.2852
901.0,0.212
902.0,0.258
903.0,0.2573
904.0,0.3377
905.0,0.3242
906.0,0.3018
907.0,0.2359
908.0,0.2422
909.0,0.2663
910.0,0.228
911.0,0.2482
912.0,0.2605
913.0,0.231
914.0,0.2306
915.0,0.2497
916.0,0.21
917.0,0.2741
918.0,0.2148
919.0,0.2814
920.0,0.2892
921.0,0.3009
922.0,0.2635
923.0,0.2912
924.0,0.269
925.0,0.2634
926.0,0.2656
927.0,0.3028
928.0,0.2066
929.0,0.1844
930.0,0.1385
931.0,0.1317
932.0,0.08824
933.0,0.06865
934.0,0.0314
935.0,0.07273
936.0,0.04132
937.0,0.04158
938.0,0.05264
939.0,0.1275
940.0,0.1582
941.0,0.1131
942.0,0.1345
943.0,0.08364
944.0,0.09283
945.0,0.118
946.0,0.0536
947.0,0.1168
948.0,0.08504
949.0,0.1626
950.0,0.03611
951.0,0.1612
952.0,0.07839
953.0,0.1067
954.0,0.137
955.0,0.1086
956.0,0.1104
957.0,0.0779
958.0,0.1641
959.0,0.123
960.0,0.1378
961.0,0.1605
962.0,0.1514
963.0,0.1796
964.0,0.163
965.0,0.1791
966.0,0.1782
967.0,0.1768
968.0,0.2563
969.0,0.2653
970.0,0.2416
971.0,0.285
972.0,0.2708
973.0,0.2273
974.0,0.2148
975.0,0.226
976.0,0.2099
977.0,0.2484
978.0,0.232
979.0,0.2455
980.0,0.2294
981.0,0.2836
982.0,0.268
983.0,0.2555
984.0,0.296
985.0,0.2669
986.0,0.3035
987.0,0.2948
988.0,0.2944
989.0,0.304
990.0,0.2925
991.0,0.3047
992.0,0.3067
993.0,0.2972
994.0,0.3069
995.0,0.3069
996.0,0.3051
997.0,0.3058
998.0,0.3042
999.0,0.3032
1000.0,0.3004
1001.0,0.3049
1002.0,0.2939
1003.0,0.2993
1004.0,0.2913
1005.0,0.2816
1006.0,0.2921
1007.0,0.2986
1008.0,0.2965
1009.0,0.2944
1010.0,0.2929
1011.0,0.2971
1012.0,0.294
1013.0,0.2965
1014.0,0.2944
1015.0,0.2924
1016.0,0.2911
1017.0,0.2917
1018.0,0.2909
1019.0,0.2837
1020.0,0.2892
1021.0,0.289
1022.0,0.2864
1023.0,0.2894
1024.0,0.2846
1025.0,0.2895
1026.0,0.288
1027.0,0.2874
1028.0,0.2867
1029.0,0.2832
1030.0,0.2855
1031.0,0.2843
1032.0,0.2835
1033.0,0.2792
1034.0,0.2793
1035.0,0.2802
1036.0,0.2815
1037.0,0.277
1038.0,0.2782
1039.0,0.2779
1040.0,0.2768
1041.0,0.2778
1042.0,0.2758
1043.0,0.2749
1044.0,0.2758
1045.0,0.272
1046.0,0.269
1047.0,0.2713
1048.0,0.2727
1049.0,0.2717
1050.0,0.2703
1051.0,0.2698
1052.0,0.2686
1053.0,0.2664
1054.0,0.2668
1055.0,0.2668
1056.0,0.2657
1057.0,0.2648
1058.0,0.2581
1059.0,0.2582
1060.0,0.2578
1061.0,0.2574
1062.0,0.2585
1063.0,0.2559
1064.0,0.259
1065.0,0.2567
1066.0,0.2519
1067.0,0.2551
1068.0,0.2492
1069.0,0.2418
1070.0,0.2497
1071.0,0.2545
1072.0,0.2509
1073.0,0.2474
1074.0,0.2548
1075.0,0.2393
1076.0,0.2544
1077.0,0.2484
1078.0,0.243
1079.0,0.2508
1080.0,0.2446
1081.0,0.2354
1082.0,0.2415
1083.0,0.2428
1084.0,0.2343
1085.0,0.2454
1086.0,0.2202
1087.0,0.2299
1088.0,0.2421
1089.0,0.2321
1090.0,0.2256
1091.0,0.2406
1092.0,0.2405
1093.0,0.197
1094.0,0.2192
1095.0,0.2058
1096.0,0.1951
1097.0,0.235
1098.0,0.1911
1099.0,0.2004
1100.0,0.1835
1101.0,0.1867
1102.0,0.1764
1103.0,0.1734
1104.0,0.1738
1105.0,0.1953
1106.0,0.1381
1107.0,0.1833
1108.0,0.1487
1109.0,0.1502
1110.0,0.1805
1111.0,0.1136
1112.0,0.1495
1113.0,0.08645
1114.0,0.09723
1115.0,0.08008
1116.0,0.05909
1117.0,0.01711
1118.0,0.06568
1119.0,0.02856
1120.0,0.03548
1121.0,0.04934
1122.0,0.0175
1123.0,0.03225
1124.0,0.02716
1125.0,0.03643
1126.0,0.009588
1127.0,0.04139
1128.0,0.02124
1129.0,0.02294
1130.0,0.01416
1131.0,0.08776
1132.0,0.06705
1133.0,0.0375
1134.0,0.007276
1135.0,0.002877
1136.0,0.02958
1137.0,0.08432
1138.0,0.05852
1139.0,0.09782
1140.0,0.07768
1141.0,0.05572
1142.0,0.06609
1143.0,0.09836
1144.0,0.02961
1145.0,0.03621
1146.0,0.03899
1147.0,0.01062
1148.0,0.0847
1149.0,0.06462
1150.0,0.03263
1151.0,0.05803
1152.0,0.07505
1153.0,0.07597
1154.0,0.03502
1155.0,0.1019
1156.0,0.08961
1157.0,0.1045
1158.0,0.1032
1159.0,0.1138
1160.0,0.09493
1161.0,0.1228
1162.0,0.1229
1163.0,0.1763
1164.0,0.1475
1165.0,0.1355
1166.0,0.1375
1167.0,0.1515
1168.0,0.1523
1169.0,0.1571
1170.0,0.1738
1171.0,0.1693
1172.0,0.1743
1173.0,0.1735
1174.0,0.1166
1175.0,0.1711
1176.0,0.1922
1177.0,0.1818
1178.0,0.131
1179.0,0.1939
1180.0,0.1686
1181.0,0.1742
1182.0,0.1142
1183.0,0.1725
1184.0,0.1596
1185.0,0.1522
1186.0,0.1866
1187.0,0.1758
1188.0,0.1152
1189.0,0.1634
1190.0,0.1827
1191.0,0.1697
1192.0,0.1856
1193.0,0.1766
1194.0,0.1829
1195.0,0.1704
1196.0,0.1626
1197.0,0.1841
1198.0,0.167
1199.0,0.1367
1200.0,0.1742
1201.0,0.1661
1202.0,0.1666
1203.0,0.1645
1204.0,0.1414
1205.0,0.172
1206.0,0.1927
1207.0,0.1655
1208.0,0.1645
1209.0,0.1682
1210.0,0.1765
1211.0,0.1661
1212.0,0.1614
1213.0,0.1851
1214.0,0.1664
1215.0,0.1628
1216.0,0.1847
1217.0,0.1788
1218.0,0.1831
1219.0,0.1803
1220.0,0.1834
1221.0,0.1858
1222.0,0.1805
1223.0,0.1784
1224.0,0.1763
1225.0,0.1845
1226.0,0.1865
1227.0,0.1693
1228.0,0.188
1229.0,0.1865
1230.0,0.1828
1231.0,0.1898
1232.0,0.1886
1233.0,0.1798
1234.0,0.1901
1235.0,0.1886
1236.0,0.1902
1237.0,0.1866
1238.0,0.1896
1239.0,0.1871
1240.0,0.188
1241.0,0.1865
1242.0,0.1866
1243.0,0.1851
1244.0,0.1863
1245.0,0.1872
1246.0,0.1861
1247.0,0.1852
1248.0,0.1848
1249.0,0.1856
1250.0,0.1843
1251.0,0.1816
1252.0,0.1821
1253.0,0.1798
1254.0,0.1774
1255.0,0.1817
1256.0,0.1751
1257.0,0.1738
1258.0,0.1783
1259.0,0.1695
1260.0,0.1707
1261.0,0.1582
1262.0,0.152
1263.0,0.1522
1264.0,0.1371
1265.0,0.1513
1266.0,0.1435
1267.0,0.1475
1268.0,0.1376
1269.0,0.07202
1270.0,0.1464
1271.0,0.158
1272.0,0.1589
1273.0,0.1569
1274.0,0.1578
1275.0,0.1606
1276.0,0.1628
1277.0,0.1646
1278.0,0.1689
1279.0,0.1672
1280.0,0.1652
1281.0,0.1582
1282.0,0.1533
1283.0,0.1649
1284.0,0.1687
1285.0,0.17
1286.0,0.1728
1287.0,0.1692
1288.0,0.1694
1289.0,0.1623
1290.0,0.168
1291.0,0.1707
1292.0,0.1571
1293.0,0.1666
1294.0,0.1653
1295.0,0.1635
1296.0,0.154
1297.0,0.1442
1298.0,0.1584
1299.0,0.1671
1300.0,0.1361
1301.0,0.1413
1302.0,0.158
1303.0,0.1349
1304.0,0.1101
1305.0,0.1544
1306.0,0.154
1307.0,0.1143
1308.0,0.136
1309.0,0.1521
1310.0,0.1118
1311.0,0.1292
1312.0,0.1249
1313.0,0.1215
1314.0,0.107
1315.0,0.1045
1316.0,0.1262
1317.0,0.1189
1318.0,0.1314
1319.0,0.09675
1320.0,0.09499
1321.0,0.1127
1322.0,0.1127
1323.0,0.08004
1324.0,0.09511
1325.0,0.1239
1326.0,0.1033
1327.0,0.09772
1328.0,0.08264
1329.0,0.05789
1330.0,0.07749
1331.0,0.04215
1332.0,0.04497
1333.0,0.06352
1334.0,0.05657
1335.0,0.07948
1336.0,0.06026
1337.0,0.05232
1338.0,0.05643
1339.0,0.05685
1340.0,0.05665
1341.0,0.05215
1342.0,0.05513
1343.0,0.03187
1344.0,0.01957
1345.0,0.02811
1346.0,0.01102
1347.0,0.0107
1348.0,0.0004139
1349.0,0.001699
1350.0,0.001941
1351.0,0.0002929
1352.0,4.405e-05
1353.0,1.361e-06
1354.0,6.807e-06
1355.0,1.777e-08
1356.0,6.503e-07
1357.0,9.932e-07
1358.0,2.201e-08
1359.0,1.203e-09
1360.0,7.421e-09
1361.0,1.922e-12
1362.0,3.714e-15
1363.0,7.089e-09
1364.0,3.071e-09
1365.0,9.53e-16
1366.0,3.829e-08
1367.0,1.99e-08
1368.0,6.228e-18
1369.0,1.126e-09
1370.0,3.957e-10
1371.0,1.612e-11
1372.0,1.12e-08
1373.0,3.91e-07
1374.0,2.714e-06
1375.0,4.56e-06
1376.0,6.286e-06
1377.0,2.665e-06
1378.0,2.912e-05
1379.0,1.128e-06
1380.0,1.221e-06
1381.0,2.679e-08
1382.0,9.04e-09
1383.0,1.074e-10
1384.0,1.088e-09
1385.0,1.332e-08
1386.0,6.167e-09
1387.0,2.055e-06
1388.0,4.671e-08
1389.0,1.148e-05
1390.0,9.536e-06
1391.0,6.056e-06
1392.0,3.69e-07
1393.0,2.392e-06
1394.0,6.025e-07
1395.0,3.105e-09
1396.0,3.164e-12
1397.0,8.158e-07
1398.0,3.069e-05
1399.0,2.004e-05
1400.0,9.85e-13
1401.0,6.438e-12
1402.0,0.0001053
1403.0,0.0001163
1404.0,3.332e-05
1405.0,1.105e-09
1406.0,6.954e-05
1407.0,7.846e-06
1408.0,5.946e-05
1409.0,1.416e-05
1410.0,1.516e-05
1411.0,0.0001051
1412.0,0.0001674
1413.0,0.00265
1414.0,1.26e-05
1415.0,5.214e-06
1416.0,0.00599
1417.0,0.001366
1418.0,0.001403
1419.0,0.0002037
1420.0,0.0008479
1421.0,0.0009768
1422.0,0.007868
1423.0,0.001428
1424.0,0.002836
1425.0,0.003861
1426.0,0.005046
1427.0,0.01068
1428.0,0.0003681
1429.0,0.007192
1430.0,0.0144
1431.0,0.01637
1432.0,0.000284
1433.0,0.009706
1434.0,0.004598
1435.0,0.003514
