interpolation:linear
wavelength,value
280.0,2.355e-22
280.5,7.762e-21
281.0,4.1650000000000004e-20
281.5,3.917e-19
282.0,6.321e-19
282.5,1.567e-18
283.0,4.959e-18
283.5,8.077e-18
284.0,1.333e-16
284.5,3.892e-16
285.0,6.375e-16
285.5,3.185e-15
286.0,1.285e-14
286.5,5.796e-14
287.0,1.665e-13
287.5,6.428e-13
288.0,2.249e-12
288.5,6.739e-12
289.0,1.784e-11
289.5,5.367e-11
290.0,1.487e-10
290.5,3.029e-10
291.0,6.499e-10
291.5,1.866e-09
292.0,3.745e-09
292.5,5.261e-09
293.0,1.13e-08
293.5,2.756e-08
294.0,4.316e-08
294.5,5.912e-08
295.0,1.003e-07
295.5,1.67e-07
296.0,3.242e-07
296.5,4.568e-07
297.0,6.219e-07
297.5,1.687e-06
298.0,2.688e-06
298.5,2.728e-06
299.0,6.073e-06
299.5,1.028e-05
300.0,1.144e-05
300.5,1.678e-05
301.0,3.103e-05
301.5,5.046e-05
302.0,4.359e-05
302.5,8.784e-05
303.0,0.000165
303.5,0.0002154
304.0,0.0002099
304.5,0.0003458
305.0,0.0006046
305.5,0.0007597
306.0,0.0007625
306.5,0.001009
307.0,0.001719
307.5,0.002618
308.0,0.002827
308.5,0.003575
309.0,0.003587
309.5,0.004585
310.0,0.004846
310.5,0.008047
311.0,0.01052
311.5,0.01034
312.0,0.01129
312.5,0.01457
313.0,0.01629
313.5,0.01538
314.0,0.02061
314.5,0.02002
315.0,0.02675
315.5,0.02141
316.0,0.02013
316.5,0.0308
317.0,0.0382
317.5,0.03904
318.0,0.03181
318.5,0.04289
319.0,0.05306
319.5,0.04046
320.0,0.0484
320.5,0.06588
321.0,0.06326
321.5,0.06111
322.0,0.06009
322.5,0.0525
323.0,0.05512
323.5,0.07124
324.0,0.08388
324.5,0.08335
325.0,0.07002
325.5,0.09397
326.0,0.1165
326.5,0.12
327.0,0.1184
327.5,0.1129
328.0,0.09692
328.5,0.1065
329.0,0.1322
329.5,0.1517
330.0,0.1518
330.5,0.1182
331.0,0.1194
331.5,0.1238
332.0,0.1378
332.5,0.1382
333.0,0.1368
333.5,0.1212
334.0,0.1237
334.5,0.1464
335.0,0.1396
335.5,0.1637
336.0,0.1133
336.5,0.1314
337.0,0.1067
337.5,0.1323
338.0,0.1318
338.5,0.1531
339.0,0.1518
339.5,0.146
340.0,0.1707
340.5,0.1543
341.0,0.1511
341.5,0.1391
342.0,0.1664
342.5,0.1559
343.0,0.1713
343.5,0.1612
344.0,0.1187
344.5,0.1203
345.0,0.1597
345.5,0.1633
346.0,0.139
346.5,0.1576
347.0,0.169
347.5,0.1367
348.0,0.1562
348.5,0.1563
349.0,0.1452
349.5,0.1438
350.0,0.178
350.5,0.1879
351.0,0.1678
351.5,0.1629
352.0,0.1753
352.5,0.137
353.0,0.1728
353.5,0.1849
354.0,0.1921
354.5,0.1949
355.0,0.1943
355.5,0.1758
356.0,0.184
356.5,0.1572
357.0,0.1299
357.5,0.1592
358.0,0.1262
358.5,0.1079
359.0,0.151
359.5,0.1924
360.0,0.2041
360.5,0.1633
361.0,0.149
361.5,0.1718
362.0,0.1487
362.5,0.2061
363.0,0.1853
363.5,0.1708
364.0,0.2091
364.5,0.1789
365.0,0.1823
365.5,0.229
366.0,0.2428
366.5,0.2284
367.0,0.2226
367.5,0.2311
368.0,0.2024
368.5,0.2044
369.0,0.2209
369.5,0.2356
370.0,0.2514
370.5,0.1953
371.0,0.2088
371.5,0.2614
372.0,0.1736
372.5,0.2083
373.0,0.2121
373.5,0.1381
374.0,0.2008
374.5,0.1664
375.0,0.1619
375.5,0.2418
376.0,0.2006
376.5,0.208
377.0,0.2204
377.5,0.258
378.0,0.2798
378.5,0.2646
379.0,0.2185
379.5,0.1996
380.0,0.2077
380.5,0.2518
381.0,0.2525
381.5,0.2004
382.0,0.1782
382.5,0.1521
383.0,0.1409
383.5,0.1358
384.0,0.15
384.5,0.2207
385.0,0.2191
385.5,0.2042
386.0,0.175
386.5,0.2301
387.0,0.1913
387.5,0.2151
388.0,0.1987
388.5,0.1966
389.0,0.2123
389.5,0.2574
390.0,0.2585
390.5,0.2381
391.0,0.2805
391.5,0.2862
392.0,0.2412
392.5,0.2162
393.0,0.1204
393.5,0.08759
394.0,0.1783
394.5,0.2269
395.0,0.2771
395.5,0.2816
396.0,0.2443
396.5,0.143
397.0,0.1074
397.5,0.2186
398.0,0.3061
398.5,0.3166
399.0,0.3433
399.5,0.3424
400.0,0.3556
401.0,0.3585
402.0,0.3789
403.0,0.3606
404.0,0.3554
405.0,0.3558
406.0,0.3506
407.0,0.3455
408.0,0.3592
409.0,0.385
410.0,0.3369
411.0,0.3654
412.0,0.3932
413.0,0.3837
414.0,0.389
415.0,0.3906
416.0,0.3981
417.0,0.3887
418.0,0.3819
419.0,0.3874
420.0,0.3861
421.0,0.4044
422.0,0.3848
423.0,0.3762
424.0,0.3982
425.0,0.398
426.0,0.3884
427.0,0.3815
428.0,0.3719
429.0,0.353
430.0,0.3093
431.0,0.3066
432.0,0.3965
433.0,0.3991
434.0,0.3708
435.0,0.3875
436.0,0.4373
437.0,0.4322
438.0,0.394
439.0,0.4071
440.0,0.4206
441.0,0.4364
442.0,0.4684
443.0,0.4561
444.0,0.4666
445.0,0.4566
446.0,0.4367
447.0,0.4729
448.0,0.48
449.0,0.4829
450.0,0.4969
451.0,0.5157
452.0,0.4973
453.0,0.4682
454.0,0.4894
455.0,0.4926
456.0,0.5047
457.0,0.5132
458.0,0.4954
459.0,0.4931
460.0,0.4943
461.0,0.5059
462.0,0.5105
463.0,0.507
464.0,0.4996
465.0,0.4942
466.0,0.4997
467.0,0.4904
468.0,0.4963
469.0,0.499
470.0,0.483
471.0,0.4827
472.0,0.5086
473.0,0.5021
474.0,0.5023
475.0,0.506
476.0,0.4901
477.0,0.4909
478.0,0.5048
479.0,0.5022
480.0,0.5037
481.0,0.5138
482.0,0.5173
483.0,0.512
484.0,0.5021
485.0,0.4789
486.0,0.4193
487.0,0.44
488.0,0.4828
489.0,0.484
490.0,0.5097
491.0,0.5013
492.0,0.4735
493.0,0.4892
494.0,0.4942
495.0,0.4986
496.0,0.5017
497.0,0.5094
498.0,0.4855
499.0,0.4913
500.0,0.4766
501.0,0.4673
502.0,0.4597
503.0,0.4773
504.0,0.4621
505.0,0.4811
506.0,0.4966
507.0,0.4728
508.0,0.459
509.0,0.4727
510.0,0.4708
511.0,0.4841
512.0,0.4897
513.0,0.4636
514.0,0.4607
515.0,0.4562
516.0,0.4549
517.0,0.4044
518.0,0.4251
519.0,0.4458
520.0,0.4619
521.0,0.4662
522.0,0.4663
523.0,0.4577
524.0,0.4736
525.0,0.4783
526.0,0.4566
527.0,0.4296
528.0,0.4539
529.0,0.4779
530.0,0.4708
531.0,0.4775
532.0,0.4609
533.0,0.4475
534.0,0.4609
535.0,0.4714
536.0,0.4761
537.0,0.4576
538.0,0.4659
539.0,0.462
540.0,0.4427
541.0,0.4447
542.0,0.4582
543.0,0.4541
544.0,0.4612
545.0,0.4599
546.0,0.4612
547.0,0.4616
548.0,0.4565
549.0,0.4581
550.0,0.4636
551.0,0.4581
552.0,0.4613
553.0,0.4529
554.0,0.4636
555.0,0.4644
556.0,0.4582
557.0,0.4436
558.0,0.4398
559.0,0.4311
560.0,0.4361
561.0,0.4413
562.0,0.4375
563.0,0.4488
564.0,0.436
565.0,0.4317
566.0,0.4249
567.0,0.4323
568.0,0.4268
569.0,0.4136
570.0,0.4139
571.0,0.4122
572.0,0.42
573.0,0.4241
574.0,0.4222
575.0,0.4136
576.0,0.4099
577.0,0.4147
578.0,0.4094
579.0,0.4125
580.0,0.4226
581.0,0.4265
582.0,0.4362
583.0,0.4385
584.0,0.4432
585.0,0.4329
586.0,0.424
587.0,0.4324
588.0,0.418
589.0,0.3628
590.0,0.38
591.0,0.4066
592.0,0.3988
593.0,0.4082
594.0,0.4039
595.0,0.3911
596.0,0.4128
597.0,0.4067
598.0,0.4075
599.0,0.4087
600.0,0.4109
601.0,0.4087
602.0,0.4061
603.0,0.4135
604.0,0.4206
605.0,0.4188
606.0,0.4178
607.0,0.4227
608.0,0.4187
609.0,0.42
610.0,0.4178
611.0,0.4203
612.0,0.4195
613.0,0.4146
614.0,0.4096
615.0,0.4191
616.0,0.4057
617.0,0.4053
618.0,0.4212
619.0,0.4172
620.0,0.4198
621.0,0.4197
622.0,0.4143
623.0,0.4076
624.0,0.4011
625.0,0.4002
626.0,0.4059
627.0,0.409
628.0,0.3644
629.0,0.3932
630.0,0.3835
631.0,0.3981
632.0,0.3945
633.0,0.409
634.0,0.407
635.0,0.4144
636.0,0.41
637.0,0.4177
638.0,0.4231
639.0,0.419
640.0,0.4159
641.0,0.4162
642.0,0.4151
643.0,0.4208
644.0,0.4202
645.0,0.4204
646.0,0.4085
647.0,0.3987
648.0,0.3993
649.0,0.3909
650.0,0.3991
651.0,0.4176
652.0,0.3939
653.0,0.4124
654.0,0.4083
655.0,0.3899
656.0,0.3478
657.0,0.3576
658.0,0.4028
659.0,0.4065
660.0,0.4086
661.0,0.4117
662.0,0.4114
663.0,0.4037
664.0,0.4103
665.0,0.412
666.0,0.4129
667.0,0.4132
668.0,0.4141
669.0,0.421
670.0,0.4195
671.0,0.4198
672.0,0.4164
673.0,0.423
674.0,0.4217
675.0,0.4182
676.0,0.4214
677.0,0.4174
678.0,0.4189
679.0,0.4123
680.0,0.4158
681.0,0.4132
682.0,0.4127
683.0,0.412
684.0,0.4099
685.0,0.4137
686.0,0.4109
687.0,0.2009
688.0,0.2661
689.0,0.2682
690.0,0.2927
691.0,0.3216
692.0,0.3447
693.0,0.3412
694.0,0.3399
695.0,0.3634
696.0,0.3644
697.0,0.3974
698.0,0.391
699.0,0.3743
700.0,0.3694
701.0,0.3627
702.0,0.3682
703.0,0.3696
704.0,0.3859
705.0,0.3863
706.0,0.3877
707.0,0.3887
708.0,0.3893
709.0,0.393
710.0,0.3913
711.0,0.3919
712.0,0.3922
713.0,0.3868
714.0,0.3887
715.0,0.3734
716.0,0.3729
717.0,0.2968
718.0,0.2704
719.0,0.2456
720.0,0.2545
721.0,0.296
722.0,0.355
723.0,0.3224
724.0,0.2805
725.0,0.2729
726.0,0.2864
727.0,0.2972
728.0,0.271
729.0,0.2903
730.0,0.3051
731.0,0.2902
732.0,0.3202
733.0,0.3479
734.0,0.3591
735.0,0.3501
736.0,0.3492
737.0,0.3507
738.0,0.3633
739.0,0.3563
740.0,0.3677
741.0,0.3653
742.0,0.367
743.0,0.3768
744.0,0.3765
745.0,0.3773
746.0,0.379
747.0,0.38
748.0,0.3793
749.0,0.3751
750.0,0.3749
751.0,0.3712
752.0,0.3729
753.0,0.3749
754.0,0.3757
755.0,0.3735
756.0,0.3735
757.0,0.374
758.0,0.3692
759.0,0.357
760.0,0.01633
761.0,0.005707
762.0,0.1121
763.0,0.03339
764.0,0.06753
765.0,0.1119
766.0,0.1653
767.0,0.2425
768.0,0.3112
769.0,0.3253
770.0,0.3451
771.0,0.3518
772.0,0.3538
773.0,0.3566
774.0,0.3551
775.0,0.3526
776.0,0.357
777.0,0.3524
778.0,0.3502
779.0,0.3505
780.0,0.3486
781.0,0.3491
782.0,0.3513
783.0,0.3453
784.0,0.3471
785.0,0.3442
786.0,0.3477
787.0,0.3381
788.0,0.3323
789.0,0.332
790.0,0.3185
791.0,0.326
792.0,0.3243
793.0,0.3186
794.0,0.3288
795.0,0.333
796.0,0.3162
797.0,0.316
798.0,0.3318
799.0,0.3285
800.0,0.3212
801.0,0.3186
802.0,0.3176
803.0,0.3143
804.0,0.3156
805.0,0.3165
806.0,0.3288
807.0,0.3241
808.0,0.3247
809.0,0.316
810.0,0.3118
811.0,0.3088
812.0,0.2954
813.0,0.2874
814.0,0.2405
815.0,0.24
816.0,0.2218
817.0,0.2266
818.0,0.2153
819.0,0.2511
820.0,0.2328
821.0,0.2879
822.0,0.2771
823.0,0.1652
824.0,0.263
825.0,0.2829
826.0,0.267
827.0,0.287
828.0,0.2283
829.0,0.2665
830.0,0.2618
831.0,0.2628
832.0,0.252
833.0,0.275
834.0,0.2606
835.0,0.2974
836.0,0.2771
837.0,0.2984
838.0,0.2853
839.0,0.2945
840.0,0.3019
841.0,0.296
842.0,0.2992
843.0,0.3017
844.0,0.2961
845.0,0.308
846.0,0.3071
847.0,0.3021
848.0,0.2991
849.0,0.2906
850.0,0.2785
851.0,0.2936
852.0,0.2922
853.0,0.2822
854.0,0.2428
855.0,0.268
856.0,0.2924
857.0,0.2997
858.0,0.2971
859.0,0.2979
860.0,0.2988
861.0,0.2971
862.0,0.3019
863.0,0.3091
864.0,0.2937
865.0,0.2912
866.0,0.2619
867.0,0.2733
868.0,0.2975
869.0,0.2913
870.0,0.2997
871.0,0.2956
872.0,0.2946
873.0,0.294
874.0,0.2906
875.0,0.2846
876.0,0.2875
877.0,0.2905
878.0,0.2934
879.0,0.289
880.0,0.2828
881.0,0.278
882.0,0.2837
883.0,0.2853
884.0,0.2837
885.0,0.2858
886.0,0.2703
887.0,0.2748
888.0,0.278
889.0,0.2829
890.0,0.2783
891.0,0.2789
892.0,0.2679
893.0,0.2568
894.0,0.2416
895.0,0.2207
896.0,0.206
897.0,0.1685
898.0,0.1879
899.0,0.1336
900.0,0.198
901.0,0.1399
902.0,0.1767
903.0,0.1739
904.0,0.2396
905.0,0.2287
906.0,0.2117
907.0,0.158
908.0,0.164
909.0,0.1829
910.0,0.1514
911.0,0.1693
912.0,0.1775
913.0,0.1532
914.0,0.154
915.0,0.166
916.0,0.1392
917.0,0.1867
918.0,0.1418
919.0,0.1937
920.0,0.2035
921.0,0.2111
922.0,0.1812
923.0,0.2049
924.0,0.1835
925.0,0.1801
926.0,0.1807
927.0,0.2097
928.0,0.1324
929.0,0.1153
930.0,0.08203
931.0,0.07781
932.0,0.04779
933.0,0.03548
934.0,0.01309
935.0,0.03891
936.0,0.01989
937.0,0.02
938.0,0.02611
939.0,0.07516
940.0,0.0968
941.0,0.06513
942.0,0.07941
943.0,0.04636
944.0,0.05481
945.0,0.06891
946.0,0.02746
947.0,0.06709
948.0,0.04858
949.0,0.09769
950.0,0.0171
951.0,0.09714
952.0,0.04269
953.0,0.0614
954.0,0.08257
955.0,0.0629
956.0,0.06871
957.0,0.04226
958.0,0.1054
959.0,0.07434
960.0,0.08335
961.0,0.1011
962.0,0.09527
963.0,0.1165
964.0,0.1048
965.0,0.1158
966.0,0.1151
967.0,0.1135
968.0,0.1793
969.0,0.1831
970.0,0.1658
971.0,0.2018
972.0,0.1903
973.0,0.1536
974.0,0.1449
975.0,0.1543
976.0,0.1396
977.0,0.1732
978.0,0.1586
979.0,0.1694
980.0,0.1576
981.0,0.2009
982.0,0.1876
983.0,0.1777
984.0,0.2127
985.0,0.1866
986.0,0.22
987.0,0.2117
988.0,0.2116
989.0,0.2217
990.0,0.2102
991.0,0.2219
992.0,0.2236
993.0,0.2146
994.0,0.224
995.0,0.2243
996.0,0.2227
997.0,0.2233
998.0,0.222
999.0,0.2214
1000.0,0.2189
1001.0,0.2227
1002.0,0.2125
1003.0,0.2185
1004.0,0.2121
1005.0,0.2058
1006.0,0.2131
1007.0,0.218
1008.0,0.2161
1009.0,0.2142
1010.0,0.2128
1011.0,0.217
1012.0,0.2144
1013.0,0.2167
1014.0,0.2152
1015.0,0.2137
1016.0,0.2126
1017.0,0.213
1018.0,0.2127
1019.0,0.2066
1020.0,0.2113
1021.0,0.2113
1022.0,0.2091
1023.0,0.2112
1024.0,0.2069
1025.0,0.2116
1026.0,0.2103
1027.0,0.2099
1028.0,0.2093
1029.0,0.2067
1030.0,0.2087
1031.0,0.2076
1032.0,0.2072
1033.0,0.204
1034.0,0.2041
1035.0,0.2047
1036.0,0.2056
1037.0,0.2023
1038.0,0.2032
1039.0,0.203
1040.0,0.2021
1041.0,0.2028
1042.0,0.2013
1043.0,0.2006
1044.0,0.2012
1045.0,0.1984
1046.0,0.1961
1047.0,0.1977
1048.0,0.1987
1049.0,0.1979
1050.0,0.1968
1051.0,0.1964
1052.0,0.1954
1053.0,0.1937
1054.0,0.1939
1055.0,0.1937
1056.0,0.1928
1057.0,0.192
1058.0,0.187
1059.0,0.187
1060.0,0.1866
1061.0,0.1862
1062.0,0.1869
1063.0,0.1849
1064.0,0.1871
1065.0,0.1852
1066.0,0.182
1067.0,0.1842
1068.0,0.1797
1069.0,0.1745
1070.0,0.1801
1071.0,0.1842
1072.0,0.1811
1073.0,0.1787
1074.0,0.1849
1075.0,0.1716
1076.0,0.1845
1077.0,0.179
1078.0,0.1745
1079.0,0.1823
1080.0,0.1763
1081.0,0.1686
1082.0,0.1747
1083.0,0.1762
1084.0,0.1674
1085.0,0.177
1086.0,0.1563
1087.0,0.1648
1088.0,0.1754
1089.0,0.1661
1090.0,0.1605
1091.0,0.1738
1092.0,0.1741
1093.0,0.1376
1094.0,0.158
1095.0,0.1438
1096.0,0.135
1097.0,0.1701
1098.0,0.1313
1099.0,0.1384
1100.0,0.125
1101.0,0.1279
1102.0,0.1194
1103.0,0.1163
1104.0,0.1168
1105.0,0.1344
1106.0,0.08756
1107.0,0.1248
1108.0,0.09677
1109.0,0.09842
1110.0,0.1218
1111.0,0.07064
1112.0,0.09824
1113.0,0.05131
1114.0,0.05779
1115.0,0.04701
1116.0,0.03193
1117.0,0.007216
1118.0,0.036
1119.0,0.01355
1120.0,0.01642
1121.0,0.02392
1122.0,0.006932
1123.0,0.01501
1124.0,0.0126
1125.0,0.01751
1126.0,0.003292
1127.0,0.02004
1128.0,0.008615
1129.0,0.009435
1130.0,0.005663
1131.0,0.04816
1132.0,0.03569
1133.0,0.01729
1134.0,0.00247
1135.0,0.001055
1136.0,0.01274
1137.0,0.04515
1138.0,0.03077
1139.0,0.05854
1140.0,0.04399
1141.0,0.02941
1142.0,0.03602
1143.0,0.05683
1144.0,0.01456
1145.0,0.01664
1146.0,0.01789
1147.0,0.003614
1148.0,0.04835
1149.0,0.03516
1150.0,0.01681
1151.0,0.03054
1152.0,0.04172
1153.0,0.04405
1154.0,0.0165
1155.0,0.06091
1156.0,0.05218
1157.0,0.0642
1158.0,0.06328
1159.0,0.07101
1160.0,0.05852
1161.0,0.07958
1162.0,0.07915
1163.0,0.1211
1164.0,0.09886
1165.0,0.08818
1166.0,0.09183
1167.0,0.1024
1168.0,0.1024
1169.0,0.1062
1170.0,0.1199
1171.0,0.1168
1172.0,0.1219
1173.0,0.1197
1174.0,0.07566
1175.0,0.1197
1176.0,0.1378
1177.0,0.128
1178.0,0.08856
1179.0,0.1389
1180.0,0.1173
1181.0,0.1213
1182.0,0.07511
1183.0,0.1208
1184.0,0.1102
1185.0,0.1037
1186.0,0.132
1187.0,0.1228
1188.0,0.07476
1189.0,0.114
1190.0,0.1297
1191.0,0.1172
1192.0,0.1321
1193.0,0.1246
1194.0,0.1297
1195.0,0.1186
1196.0,0.1121
1197.0,0.1314
1198.0,0.1184
1199.0,0.09258
1200.0,0.1229
1201.0,0.1155
1202.0,0.1174
1203.0,0.1148
1204.0,0.09708
1205.0,0.1224
1206.0,0.1392
1207.0,0.1159
1208.0,0.1166
1209.0,0.1194
1210.0,0.1263
1211.0,0.1174
1212.0,0.1113
1213.0,0.1324
1214.0,0.1157
1215.0,0.1131
1216.0,0.1325
1217.0,0.1274
1218.0,0.1312
1219.0,0.1286
1220.0,0.1315
1221.0,0.1338
1222.0,0.1297
1223.0,0.1277
1224.0,0.1253
1225.0,0.1327
1226.0,0.1348
1227.0,0.12
1228.0,0.1365
1229.0,0.1349
1230.0,0.1318
1231.0,0.1384
1232.0,0.1374
1233.0,0.1289
1234.0,0.1391
1235.0,0.1376
1236.0,0.1391
1237.0,0.1356
1238.0,0.1386
1239.0,0.1368
1240.0,0.1375
1241.0,0.1359
1242.0,0.1365
1243.0,0.1354
1244.0,0.1361
1245.0,0.1368
1246.0,0.1361
1247.0,0.1353
1248.0,0.1347
1249.0,0.1356
1250.0,0.1344
1251.0,0.1321
1252.0,0.1329
1253.0,0.1304
1254.0,0.1281
1255.0,0.1324
1256.0,0.1261
1257.0,0.1249
1258.0,0.1293
1259.0,0.1206
1260.0,0.1217
1261.0,0.1101
1262.0,0.1043
1263.0,0.1044
1264.0,0.09091
1265.0,0.1038
1266.0,0.09663
1267.0,0.1006
1268.0,0.09183
1269.0,0.0381
1270.0,0.09934
1271.0,0.1103
1272.0,0.1112
1273.0,0.1095
1274.0,0.1106
1275.0,0.1131
1276.0,0.1151
1277.0,0.1171
1278.0,0.1213
1279.0,0.1201
1280.0,0.1187
1281.0,0.1142
1282.0,0.1115
1283.0,0.1198
1284.0,0.1224
1285.0,0.1234
1286.0,0.1259
1287.0,0.1225
1288.0,0.1229
1289.0,0.116
1290.0,0.122
1291.0,0.1242
1292.0,0.1113
1293.0,0.1206
1294.0,0.1195
1295.0,0.1171
1296.0,0.1085
1297.0,0.1004
1298.0,0.1131
1299.0,0.1212
1300.0,0.09434
1301.0,0.09863
1302.0,0.1129
1303.0,0.09389
1304.0,0.07279
1305.0,0.1102
1306.0,0.1093
1307.0,0.07706
1308.0,0.09534
1309.0,0.1072
1310.0,0.0749
1311.0,0.08965
1312.0,0.08625
1313.0,0.08274
1314.0,0.0714
1315.0,0.06888
1316.0,0.08681
1317.0,0.08116
1318.0,0.0914
1319.0,0.06277
1320.0,0.06247
1321.0,0.07587
1322.0,0.07496
1323.0,0.04957
1324.0,0.06194
1325.0,0.08457
1326.0,0.06831
1327.0,0.0639
1328.0,0.05268
1329.0,0.03381
1330.0,0.0471
1331.0,0.02258
1332.0,0.02492
1333.0,0.03576
1334.0,0.03428
1335.0,0.04875
1336.0,0.03506
1337.0,0.03018
1338.0,0.03223
1339.0,0.03286
1340.0,0.03373
1341.0,0.02873
1342.0,0.03075
1343.0,0.01474
1344.0,0.009422
1345.0,0.0131
1346.0,0.003853
1347.0,0.003507
1348.0,7.946e-05
1349.0,0.0003605
1350.0,0.0004397
1351.0,4.072e-05
1352.0,3.33e-06
1353.0,9.357e-08
1354.0,5.305e-07
1355.0,1.587e-09
1356.0,4.529e-08
1357.0,6.823e-08
1358.0,1.896e-09
1359.0,2.068e-10
1360.0,7.933e-10
1361.0,8.207e-13
1362.0,2.243e-15
1363.0,1.011e-09
1364.0,4.219e-10
1365.0,7.829e-16
1366.0,4.462e-09
1367.0,1.925e-09
1368.0,6.045e-18
1369.0,1.556e-10
1370.0,7.492e-11
1371.0,4.211e-12
1372.0,1.056e-09
1373.0,2.679e-08
1374.0,1.792e-07
1375.0,2.789e-07
1376.0,4.923e-07
1377.0,2.038e-07
1378.0,2.091e-06
1379.0,8.937e-08
1380.0,8.215e-08
1381.0,1.898e-09
1382.0,9.035e-10
1383.0,1.315e-11
1384.0,1.665e-10
1385.0,1.007e-09
1386.0,7.625e-10
1387.0,1.267e-07
1388.0,3.246e-09
1389.0,7.613e-07
1390.0,5.975e-07
1391.0,3.941e-07
1392.0,2.583e-08
1393.0,1.761e-07
1394.0,4.006e-08
1395.0,2.609e-10
1396.0,1.07e-12
1397.0,5.659e-08
1398.0,2.041e-06
1399.0,1.384e-06
1400.0,4.566e-13
1401.0,1.9e-12
1402.0,1.418e-05
1403.0,1.312e-05
1404.0,3.385e-06
1405.0,1.135e-10
1406.0,5.494e-06
1407.0,9.624e-07
1408.0,4.954e-06
1409.0,9.144e-07
1410.0,1.362e-06
1411.0,1.233e-05
1412.0,2.373e-05
1413.0,0.0005511
1414.0,1.205e-06
1415.0,4.455e-07
1416.0,0.001892
1417.0,0.00034
1418.0,0.0002753
1419.0,3.792e-05
1420.0,0.0001653
1421.0,0.0002328
1422.0,0.002465
1423.0,0.0004362
1424.0,0.0009495
1425.0,0.001145
1426.0,0.001782
1427.0,0.004189
1428.0,6.503e-05
1429.0,0.002505
