interpolation:linear
wavelength,value
280.0,2.651e-21
280.5,8.334e-20
281.0,4.402e-19
281.5,3.498e-19
282.0,1.019e-18
282.5,2.686e-18
283.0,8.708e-18
283.5,1.427e-17
284.0,2.332e-16
284.5,6.739e-16
285.0,1.519e-15
285.5,7.348e-15
286.0,2.936e-14
286.5,1.294e-13
287.0,3.659e-13
287.5,1.384e-12
288.0,3.72e-12
288.5,1.23e-11
289.0,3.479e-11
289.5,1.098e-10
290.0,3.131e-10
290.5,6.503e-10
291.0,1.42e-09
291.5,4.143e-09
292.0,8.845e-09
292.5,1.327e-08
293.0,3.095e-08
293.5,8.441e-08
294.0,1.431e-07
294.5,1.852e-07
295.0,3.394e-07
295.5,8.776e-07
296.0,1.758e-06
296.5,2.565e-06
297.0,3.606e-06
297.5,1.03e-05
298.0,1.723e-05
298.5,1.821e-05
299.0,4.226e-05
299.5,7.724e-05
300.0,9.014e-05
300.5,0.0001394
301.0,0.0002839
301.5,0.000515
302.0,0.000477
302.5,0.0009437
303.0,0.001723
303.5,0.002192
304.0,0.002076
304.5,0.003156
305.0,0.004903
305.5,0.0057
306.0,0.005549
306.5,0.006974
307.0,0.01055
307.5,0.01427
308.0,0.01512
308.5,0.01801
309.0,0.01778
309.5,0.02053
310.0,0.02072
310.5,0.03363
311.0,0.04236
311.5,0.04096
312.0,0.04125
312.5,0.05044
313.0,0.05484
313.5,0.05316
314.0,0.06683
314.5,0.05967
315.0,0.07852
315.5,0.06549
316.0,0.05752
316.5,0.08297
317.0,0.103
317.5,0.1071
318.0,0.08382
318.5,0.1047
319.0,0.1246
319.5,0.1011
320.0,0.1221
320.5,0.1537
321.0,0.1375
321.5,0.1319
322.0,0.14
322.5,0.1218
323.0,0.1217
323.5,0.15
324.0,0.1752
324.5,0.1777
325.0,0.1533
325.5,0.1977
326.0,0.2419
326.5,0.2426
327.0,0.2417
327.5,0.2334
328.0,0.2075
328.5,0.2186
329.0,0.2621
329.5,0.2978
330.0,0.3003
330.5,0.2402
331.0,0.2447
331.5,0.2489
332.0,0.2693
332.5,0.2666
333.0,0.2658
333.5,0.2404
334.0,0.2463
334.5,0.2845
335.0,0.2676
335.5,0.3126
336.0,0.2163
336.5,0.2533
337.0,0.2078
337.5,0.2585
338.0,0.2526
338.5,0.2917
339.0,0.2888
339.5,0.2779
340.0,0.3266
340.5,0.2945
341.0,0.2873
341.5,0.2639
342.0,0.3155
342.5,0.2953
343.0,0.3248
343.5,0.3059
344.0,0.2261
344.5,0.2284
345.0,0.3024
345.5,0.3089
346.0,0.2626
346.5,0.2975
347.0,0.3194
347.5,0.2583
348.0,0.2946
348.5,0.2945
349.0,0.2733
349.5,0.2707
350.0,0.335
350.5,0.3534
351.0,0.3158
351.5,0.3069
352.0,0.3298
352.5,0.2575
353.0,0.3244
353.5,0.347
354.0,0.3603
354.5,0.3655
355.0,0.3644
355.5,0.3293
356.0,0.3447
356.5,0.2944
357.0,0.2433
357.5,0.2979
358.0,0.2361
358.5,0.2018
359.0,0.2824
359.5,0.3599
360.0,0.3816
360.5,0.3051
361.0,0.2782
361.5,0.3205
362.0,0.2773
362.5,0.384
363.0,0.345
363.5,0.3179
364.0,0.389
364.5,0.3326
365.0,0.3388
365.5,0.4254
366.0,0.4508
366.5,0.4238
367.0,0.4128
367.5,0.4285
368.0,0.3751
368.5,0.3786
369.0,0.409
369.5,0.4361
370.0,0.4651
370.5,0.3611
371.0,0.386
371.5,0.483
372.0,0.3206
372.5,0.3846
373.0,0.3914
373.5,0.2547
374.0,0.3702
374.5,0.3067
375.0,0.2982
375.5,0.4454
376.0,0.3693
376.5,0.3828
377.0,0.4054
377.5,0.4745
378.0,0.5144
378.5,0.4863
379.0,0.4014
379.5,0.3667
380.0,0.3814
380.5,0.4621
381.0,0.4633
381.5,0.3674
382.0,0.3264
382.5,0.2784
383.0,0.2578
383.5,0.2484
384.0,0.2741
384.5,0.4033
385.0,0.4001
385.5,0.3727
386.0,0.3193
386.5,0.4196
387.0,0.3488
387.5,0.3918
388.0,0.3619
388.5,0.3578
389.0,0.3864
389.5,0.4681
390.0,0.4699
390.5,0.4326
391.0,0.5094
391.5,0.5197
392.0,0.4378
392.5,0.3921
393.0,0.2183
393.5,0.1587
394.0,0.323
394.5,0.4108
395.0,0.5014
395.5,0.5095
396.0,0.4418
396.5,0.2584
397.0,0.194
397.5,0.3946
398.0,0.5526
398.5,0.5714
399.0,0.619
399.5,0.6171
400.0,0.6409
401.0,0.6495
402.0,0.6857
403.0,0.6517
404.0,0.642
405.0,0.6422
406.0,0.6321
407.0,0.6222
408.0,0.6467
409.0,0.6925
410.0,0.6054
411.0,0.6561
412.0,0.705
413.0,0.6878
414.0,0.6965
415.0,0.6987
416.0,0.7113
417.0,0.694
418.0,0.6814
419.0,0.6907
420.0,0.6879
421.0,0.7199
422.0,0.6845
423.0,0.6689
424.0,0.7076
425.0,0.7066
426.0,0.6887
427.0,0.676
428.0,0.6587
429.0,0.6242
430.0,0.5465
431.0,0.5417
432.0,0.6998
433.0,0.7039
434.0,0.6537
435.0,0.6828
436.0,0.7697
437.0,0.7597
438.0,0.692
439.0,0.7157
440.0,0.7387
441.0,0.7657
442.0,0.8214
443.0,0.8001
444.0,0.8177
445.0,0.8001
446.0,0.7639
447.0,0.8262
448.0,0.839
449.0,0.8428
450.0,0.8666
451.0,0.8989
452.0,0.8662
453.0,0.8149
454.0,0.851
455.0,0.8564
456.0,0.8769
457.0,0.8916
458.0,0.8611
459.0,0.8568
460.0,0.8591
461.0,0.879
462.0,0.886
463.0,0.8799
464.0,0.8657
465.0,0.8551
466.0,0.8636
467.0,0.8478
468.0,0.8579
469.0,0.8624
470.0,0.8349
471.0,0.834
472.0,0.8787
473.0,0.8674
474.0,0.8685
475.0,0.8757
476.0,0.8494
477.0,0.8516
478.0,0.8753
479.0,0.8702
480.0,0.872
481.0,0.8885
482.0,0.8934
483.0,0.8829
484.0,0.865
485.0,0.8243
486.0,0.7208
487.0,0.7556
488.0,0.8289
489.0,0.8314
490.0,0.8749
491.0,0.8599
492.0,0.8121
493.0,0.8388
494.0,0.8472
495.0,0.8545
496.0,0.8598
497.0,0.8731
498.0,0.8323
499.0,0.8428
500.0,0.8182
501.0,0.803
502.0,0.7915
503.0,0.8234
504.0,0.8015
505.0,0.831
506.0,0.8578
507.0,0.8163
508.0,0.7912
509.0,0.8136
510.0,0.8095
511.0,0.8314
512.0,0.8406
513.0,0.7956
514.0,0.7903
515.0,0.7824
516.0,0.7805
517.0,0.6936
518.0,0.7291
519.0,0.7648
520.0,0.7926
521.0,0.8001
522.0,0.8007
523.0,0.7862
524.0,0.8142
525.0,0.8236
526.0,0.7867
527.0,0.7411
528.0,0.7837
529.0,0.8259
530.0,0.8139
531.0,0.8259
532.0,0.7975
533.0,0.7742
534.0,0.7972
535.0,0.8147
536.0,0.8222
537.0,0.7899
538.0,0.8039
539.0,0.7972
540.0,0.7642
541.0,0.769
542.0,0.793
543.0,0.7848
544.0,0.7982
545.0,0.7958
546.0,0.7991
547.0,0.7989
548.0,0.7895
549.0,0.7919
550.0,0.8014
551.0,0.7917
552.0,0.7972
553.0,0.7829
554.0,0.8016
555.0,0.8031
556.0,0.7927
557.0,0.7679
558.0,0.762
559.0,0.7476
560.0,0.7569
561.0,0.7665
562.0,0.7608
563.0,0.7814
564.0,0.7599
565.0,0.7532
566.0,0.742
567.0,0.7559
568.0,0.7487
569.0,0.7299
570.0,0.7298
571.0,0.7257
572.0,0.7424
573.0,0.7503
574.0,0.7477
575.0,0.7335
576.0,0.7269
577.0,0.7349
578.0,0.7241
579.0,0.7274
580.0,0.742
581.0,0.7464
582.0,0.761
583.0,0.7632
584.0,0.7701
585.0,0.7515
586.0,0.736
587.0,0.7519
588.0,0.7323
589.0,0.6464
590.0,0.6762
591.0,0.717
592.0,0.7071
593.0,0.7186
594.0,0.7132
595.0,0.6947
596.0,0.7241
597.0,0.7158
598.0,0.7145
599.0,0.7154
600.0,0.717
601.0,0.7115
602.0,0.7067
603.0,0.7186
604.0,0.7306
605.0,0.727
606.0,0.7242
607.0,0.7316
608.0,0.7237
609.0,0.7252
610.0,0.7202
611.0,0.7241
612.0,0.7221
613.0,0.7131
614.0,0.7035
615.0,0.719
616.0,0.6955
617.0,0.6942
618.0,0.721
619.0,0.7138
620.0,0.7183
621.0,0.7188
622.0,0.7102
623.0,0.6993
624.0,0.6874
625.0,0.6859
626.0,0.696
627.0,0.7033
628.0,0.6513
629.0,0.6848
630.0,0.6688
631.0,0.6858
632.0,0.6779
633.0,0.6993
634.0,0.6931
635.0,0.7042
636.0,0.6953
637.0,0.7069
638.0,0.7141
639.0,0.7063
640.0,0.6998
641.0,0.6995
642.0,0.6966
643.0,0.706
644.0,0.7039
645.0,0.7049
646.0,0.6878
647.0,0.6781
648.0,0.6787
649.0,0.6654
650.0,0.6706
651.0,0.7
652.0,0.6688
653.0,0.6908
654.0,0.6833
655.0,0.6568
656.0,0.5829
657.0,0.5987
658.0,0.6715
659.0,0.6766
660.0,0.6795
661.0,0.6844
662.0,0.6854
663.0,0.672
664.0,0.6805
665.0,0.6815
666.0,0.6822
667.0,0.6817
668.0,0.6823
669.0,0.693
670.0,0.6901
671.0,0.69
672.0,0.6842
673.0,0.6946
674.0,0.6921
675.0,0.6859
676.0,0.6906
677.0,0.6839
678.0,0.6859
679.0,0.6749
680.0,0.6803
681.0,0.6759
682.0,0.675
683.0,0.6737
684.0,0.6704
685.0,0.6762
686.0,0.6721
687.0,0.4223
688.0,0.506
689.0,0.5082
690.0,0.5369
691.0,0.5695
692.0,0.5937
693.0,0.5886
694.0,0.5838
695.0,0.6109
696.0,0.6119
697.0,0.6529
698.0,0.6427
699.0,0.625
700.0,0.6173
701.0,0.6102
702.0,0.6154
703.0,0.6166
704.0,0.6378
705.0,0.6387
706.0,0.6387
707.0,0.6394
708.0,0.6407
709.0,0.6426
710.0,0.6421
711.0,0.6415
712.0,0.64
713.0,0.6332
714.0,0.6357
715.0,0.6147
716.0,0.6148
717.0,0.5245
718.0,0.4805
719.0,0.4394
720.0,0.4595
721.0,0.5125
722.0,0.592
723.0,0.5482
724.0,0.4905
725.0,0.4814
726.0,0.5045
727.0,0.5138
728.0,0.4798
729.0,0.5009
730.0,0.5298
731.0,0.5061
732.0,0.5446
733.0,0.5796
734.0,0.5943
735.0,0.5815
736.0,0.5807
737.0,0.583
738.0,0.5942
739.0,0.5824
740.0,0.5983
741.0,0.5927
742.0,0.5937
743.0,0.6089
744.0,0.6075
745.0,0.6078
746.0,0.6106
747.0,0.612
748.0,0.6107
749.0,0.6038
750.0,0.6034
751.0,0.5973
752.0,0.5999
753.0,0.603
754.0,0.6043
755.0,0.6009
756.0,0.6007
757.0,0.6015
758.0,0.594
759.0,0.5806
760.0,0.07539
761.0,0.03614
762.0,0.2712
763.0,0.1224
764.0,0.1952
765.0,0.2711
766.0,0.3448
767.0,0.4476
768.0,0.5269
769.0,0.5403
770.0,0.5614
771.0,0.5671
772.0,0.5687
773.0,0.5728
774.0,0.5701
775.0,0.5658
776.0,0.5727
777.0,0.5652
778.0,0.5617
779.0,0.5622
780.0,0.5591
781.0,0.5597
782.0,0.5632
783.0,0.5534
784.0,0.5561
785.0,0.5519
786.0,0.5579
787.0,0.5471
788.0,0.5398
789.0,0.5395
790.0,0.5236
791.0,0.5296
792.0,0.5259
793.0,0.5172
794.0,0.5277
795.0,0.5362
796.0,0.5176
797.0,0.5181
798.0,0.5353
799.0,0.5315
800.0,0.5217
801.0,0.5197
802.0,0.5182
803.0,0.514
804.0,0.5149
805.0,0.5139
806.0,0.5293
807.0,0.5227
808.0,0.5233
809.0,0.5127
810.0,0.508
811.0,0.5075
812.0,0.4916
813.0,0.4805
814.0,0.4182
815.0,0.4159
816.0,0.3865
817.0,0.3941
818.0,0.3783
819.0,0.4268
820.0,0.4005
821.0,0.4737
822.0,0.4592
823.0,0.3036
824.0,0.4439
825.0,0.4653
826.0,0.446
827.0,0.4724
828.0,0.3953
829.0,0.4436
830.0,0.4373
831.0,0.4389
832.0,0.4245
833.0,0.4542
834.0,0.4364
835.0,0.4832
836.0,0.4601
837.0,0.4847
838.0,0.4685
839.0,0.4777
840.0,0.4885
841.0,0.481
842.0,0.4829
843.0,0.4835
844.0,0.4763
845.0,0.493
846.0,0.491
847.0,0.4821
848.0,0.4787
849.0,0.4651
850.0,0.4456
851.0,0.4714
852.0,0.4683
853.0,0.4511
854.0,0.3892
855.0,0.428
856.0,0.4675
857.0,0.4782
858.0,0.4746
859.0,0.4752
860.0,0.4762
861.0,0.4735
862.0,0.481
863.0,0.4924
864.0,0.4678
865.0,0.4637
866.0,0.417
867.0,0.4352
868.0,0.4735
869.0,0.4637
870.0,0.477
871.0,0.4705
872.0,0.4688
873.0,0.4679
874.0,0.4623
875.0,0.4529
876.0,0.4576
877.0,0.4623
878.0,0.4672
879.0,0.4601
880.0,0.4502
881.0,0.4433
882.0,0.4528
883.0,0.4544
884.0,0.4522
885.0,0.4556
886.0,0.4335
887.0,0.4387
888.0,0.4448
889.0,0.4505
890.0,0.4459
891.0,0.4456
892.0,0.4317
893.0,0.417
894.0,0.4001
895.0,0.3751
896.0,0.3524
897.0,0.299
898.0,0.3283
899.0,0.2454
900.0,0.3385
901.0,0.2573
902.0,0.3077
903.0,0.3088
904.0,0.3971
905.0,0.3822
906.0,0.3567
907.0,0.2842
908.0,0.2907
909.0,0.3174
910.0,0.276
911.0,0.2973
912.0,0.3116
913.0,0.2799
914.0,0.2784
915.0,0.3019
916.0,0.2545
917.0,0.3279
918.0,0.2607
919.0,0.3352
920.0,0.3416
921.0,0.3555
922.0,0.3143
923.0,0.3436
924.0,0.3216
925.0,0.3147
926.0,0.3178
927.0,0.3593
928.0,0.2537
929.0,0.2289
930.0,0.1756
931.0,0.1669
932.0,0.1157
933.0,0.09187
934.0,0.04583
935.0,0.09581
936.0,0.05689
937.0,0.05739
938.0,0.07169
939.0,0.1616
940.0,0.1976
941.0,0.1449
942.0,0.1703
943.0,0.1087
944.0,0.1176
945.0,0.1503
946.0,0.07202
947.0,0.1498
948.0,0.1094
949.0,0.2048
950.0,0.05038
951.0,0.2025
952.0,0.103
953.0,0.1369
954.0,0.1721
955.0,0.1389
956.0,0.1378
957.0,0.1027
958.0,0.201
959.0,0.1547
960.0,0.1734
961.0,0.1985
962.0,0.1874
963.0,0.2195
964.0,0.2
965.0,0.2189
966.0,0.2182
967.0,0.2169
968.0,0.3033
969.0,0.3154
970.0,0.2882
971.0,0.3353
972.0,0.3197
973.0,0.2728
974.0,0.2582
975.0,0.2701
976.0,0.2535
977.0,0.2945
978.0,0.2773
979.0,0.2921
980.0,0.2736
981.0,0.3336
982.0,0.3169
983.0,0.3031
984.0,0.3461
985.0,0.3157
986.0,0.3536
987.0,0.345
988.0,0.3445
989.0,0.3535
990.0,0.3424
991.0,0.3543
992.0,0.3566
993.0,0.347
994.0,0.3566
995.0,0.3564
996.0,0.3546
997.0,0.3552
998.0,0.3535
999.0,0.3522
1000.0,0.3494
1001.0,0.3542
1002.0,0.3428
1003.0,0.3478
1004.0,0.3389
1005.0,0.3271
1006.0,0.3395
1007.0,0.3469
1008.0,0.3447
1009.0,0.3426
1010.0,0.3409
1011.0,0.3452
1012.0,0.3419
1013.0,0.3444
1014.0,0.342
1015.0,0.3397
1016.0,0.3381
1017.0,0.3389
1018.0,0.3379
1019.0,0.33
1020.0,0.336
1021.0,0.3356
1022.0,0.3328
1023.0,0.3363
1024.0,0.3313
1025.0,0.3363
1026.0,0.3347
1027.0,0.3339
1028.0,0.3332
1029.0,0.3292
1030.0,0.3317
1031.0,0.3302
1032.0,0.3293
1033.0,0.3244
1034.0,0.3244
1035.0,0.3254
1036.0,0.327
1037.0,0.3218
1038.0,0.3231
1039.0,0.3229
1040.0,0.3216
1041.0,0.3228
1042.0,0.3206
1043.0,0.3195
1044.0,0.3206
1045.0,0.3162
1046.0,0.3127
1047.0,0.3155
1048.0,0.3171
1049.0,0.3159
1050.0,0.3144
1051.0,0.3139
1052.0,0.3126
1053.0,0.31
1054.0,0.3106
1055.0,0.3107
1056.0,0.3095
1057.0,0.3085
1058.0,0.3008
1059.0,0.301
1060.0,0.3005
1061.0,0.3001
1062.0,0.3016
1063.0,0.2985
1064.0,0.3021
1065.0,0.2997
1066.0,0.2939
1067.0,0.2977
1068.0,0.291
1069.0,0.2821
1070.0,0.2916
1071.0,0.2966
1072.0,0.2928
1073.0,0.2887
1074.0,0.2968
1075.0,0.2802
1076.0,0.2964
1077.0,0.2902
1078.0,0.2843
1079.0,0.292
1080.0,0.2857
1081.0,0.2757
1082.0,0.2816
1083.0,0.2828
1084.0,0.2747
1085.0,0.2865
1086.0,0.259
1087.0,0.2691
1088.0,0.2822
1089.0,0.272
1090.0,0.265
1091.0,0.2809
1092.0,0.2805
1093.0,0.2333
1094.0,0.2561
1095.0,0.2436
1096.0,0.2319
1097.0,0.274
1098.0,0.2277
1099.0,0.2382
1100.0,0.2196
1101.0,0.2229
1102.0,0.2117
1103.0,0.2087
1104.0,0.2091
1105.0,0.2324
1106.0,0.1703
1107.0,0.2193
1108.0,0.1814
1109.0,0.1826
1110.0,0.2167
1111.0,0.1411
1112.0,0.1816
1113.0,0.1096
1114.0,0.123
1115.0,0.1017
1116.0,0.0777
1117.0,0.02503
1118.0,0.08564
1119.0,0.03953
1120.0,0.04947
1121.0,0.0674
1122.0,0.02587
1123.0,0.04484
1124.0,0.0378
1125.0,0.05005
1126.0,0.015
1127.0,0.05669
1128.0,0.03122
1129.0,0.03346
1130.0,0.02116
1131.0,0.1143
1132.0,0.08836
1133.0,0.05233
1134.0,0.0115
1135.0,0.004426
1136.0,0.04237
1137.0,0.111
1138.0,0.07749
1139.0,0.123
1140.0,0.09991
1141.0,0.0737
1142.0,0.08624
1143.0,0.1256
1144.0,0.0404
1145.0,0.05053
1146.0,0.05445
1147.0,0.01669
1148.0,0.1085
1149.0,0.08443
1150.0,0.04392
1151.0,0.07686
1152.0,0.09719
1153.0,0.09671
1154.0,0.04876
1155.0,0.1282
1156.0,0.1139
1157.0,0.1304
1158.0,0.1289
1159.0,0.1408
1160.0,0.1185
1161.0,0.1501
1162.0,0.1505
1163.0,0.21
1164.0,0.1777
1165.0,0.1652
1166.0,0.1659
1167.0,0.1819
1168.0,0.1833
1169.0,0.1884
1170.0,0.2068
1171.0,0.2014
1172.0,0.2063
1173.0,0.2064
1174.0,0.1427
1175.0,0.2025
1176.0,0.2251
1177.0,0.2145
1178.0,0.1576
1179.0,0.227
1180.0,0.2
1181.0,0.2065
1182.0,0.1387
1183.0,0.2039
1184.0,0.1899
1185.0,0.1821
1186.0,0.2196
1187.0,0.208
1188.0,0.1405
1189.0,0.1936
1190.0,0.2148
1191.0,0.2018
1192.0,0.218
1193.0,0.2082
1194.0,0.215
1195.0,0.2019
1196.0,0.1936
1197.0,0.2159
1198.0,0.1966
1199.0,0.1641
1200.0,0.2054
1201.0,0.197
1202.0,0.1967
1203.0,0.1947
1204.0,0.1688
1205.0,0.2022
1206.0,0.225
1207.0,0.1958
1208.0,0.1937
1209.0,0.1979
1210.0,0.2068
1211.0,0.1958
1212.0,0.192
1213.0,0.2168
1214.0,0.1972
1215.0,0.1932
1216.0,0.2162
1217.0,0.21
1218.0,0.2144
1219.0,0.2115
1220.0,0.2147
1221.0,0.2172
1222.0,0.2113
1223.0,0.209
1224.0,0.2072
1225.0,0.2157
1226.0,0.2176
1227.0,0.1992
1228.0,0.219
1229.0,0.2176
1230.0,0.2136
1231.0,0.2207
1232.0,0.2193
1233.0,0.2105
1234.0,0.2208
1235.0,0.2192
1236.0,0.2209
1237.0,0.2173
1238.0,0.2202
1239.0,0.2173
1240.0,0.2182
1241.0,0.2169
1242.0,0.2167
1243.0,0.215
1244.0,0.2164
1245.0,0.2174
1246.0,0.2161
1247.0,0.2152
1248.0,0.2149
1249.0,0.2157
1250.0,0.2143
1251.0,0.2114
1252.0,0.2116
1253.0,0.2095
1254.0,0.2071
1255.0,0.2113
1256.0,0.2045
1257.0,0.2033
1258.0,0.2077
1259.0,0.1989
1260.0,0.2001
1261.0,0.1873
1262.0,0.1808
1263.0,0.1811
1264.0,0.1653
1265.0,0.18
1266.0,0.172
1267.0,0.1759
1268.0,0.1655
1269.0,0.09473
1270.0,0.1749
1271.0,0.1868
1272.0,0.1876
1273.0,0.1855
1274.0,0.1863
1275.0,0.1893
1276.0,0.1915
1277.0,0.1931
1278.0,0.1975
1279.0,0.1956
1280.0,0.1932
1281.0,0.1847
1282.0,0.1784
1283.0,0.1921
1284.0,0.1965
1285.0,0.1979
1286.0,0.2009
1287.0,0.1973
1288.0,0.1974
1289.0,0.1901
1290.0,0.1957
1291.0,0.1986
1292.0,0.1848
1293.0,0.1943
1294.0,0.1928
1295.0,0.1914
1296.0,0.1815
1297.0,0.1708
1298.0,0.1857
1299.0,0.1947
1300.0,0.1617
1301.0,0.1673
1302.0,0.1852
1303.0,0.1599
1304.0,0.1335
1305.0,0.1812
1306.0,0.181
1307.0,0.1375
1308.0,0.1607
1309.0,0.1792
1310.0,0.1346
1311.0,0.1534
1312.0,0.1488
1313.0,0.1453
1314.0,0.129
1315.0,0.1267
1316.0,0.1504
1317.0,0.1421
1318.0,0.1557
1319.0,0.1181
1320.0,0.1152
1321.0,0.1354
1322.0,0.1362
1323.0,0.09953
1324.0,0.116
1325.0,0.148
1326.0,0.1252
1327.0,0.1189
1328.0,0.1015
1329.0,0.07363
1330.0,0.09718
1331.0,0.05562
1332.0,0.05843
1333.0,0.08198
1334.0,0.07111
1335.0,0.09905
1336.0,0.07668
1337.0,0.06707
1338.0,0.07252
1339.0,0.07264
1340.0,0.07152
1341.0,0.06782
1342.0,0.07144
1343.0,0.04461
1344.0,0.02701
1345.0,0.039
1346.0,0.01715
1347.0,0.01706
1348.0,0.0008427
1349.0,0.003261
1350.0,0.003571
1351.0,0.0006771
1352.0,0.0001371
1353.0,5.316e-06
1354.0,2.221e-05
1355.0,9.857e-08
1356.0,2.557e-06
1357.0,3.912e-06
1358.0,1.196e-07
1359.0,9.517e-09
1360.0,4.648e-08
1361.0,2.02e-11
1362.0,3.828e-14
1363.0,5.322e-08
1364.0,2.21e-08
1365.0,8.075e-15
1366.0,2.625e-07
1367.0,1.197e-07
1368.0,2.551e-17
1369.0,8.125e-09
1370.0,3.3e-09
1371.0,1.504e-10
1372.0,6.64e-08
1373.0,1.811e-06
1374.0,1.039e-05
1375.0,1.841e-05
1376.0,2.024e-05
1377.0,8.879e-06
1378.0,9.372e-05
1379.0,3.727e-06
1380.0,4.671e-06
1381.0,1.096e-07
1382.0,5.657e-08
1383.0,7.306e-10
1384.0,8.459e-09
1385.0,6.725e-08
1386.0,4.379e-08
1387.0,9.313e-06
1388.0,1.907e-07
1389.0,4.051e-05
1390.0,3.447e-05
1391.0,2.221e-05
1392.0,1.372e-06
1393.0,8.127e-06
1394.0,2.933e-06
1395.0,1.74e-08
1396.0,3.312e-11
1397.0,2.981e-06
1398.0,0.0001023
1399.0,6.564e-05
1400.0,1.108e-11
1401.0,6.526e-11
1402.0,0.0002497
1403.0,0.0002952
1404.0,8.747e-05
1405.0,7.167e-09
1406.0,0.0002049
1407.0,1.998e-05
1408.0,0.000171
1409.0,4.824e-05
1410.0,4.407e-05
1411.0,0.0002629
1412.0,0.0003857
1413.0,0.005026
1414.0,3.563e-05
1415.0,1.581e-05
1416.0,0.009718
1417.0,0.002501
1418.0,0.002732
1419.0,0.0004078
1420.0,0.001659
1421.0,0.001829
1422.0,0.01276
1423.0,0.002368
1424.0,0.004574
1425.0,0.00648
1426.0,0.007929
1427.0,0.01585
1428.0,0.000771
1429.0,0.01118
1430.0,0.02081
1431.0,0.02331
1432.0,0.0005996
1433.0,0.01423
1434.0,0.006948
1435.0,0.005978
1436.0,0.013
1437.0,0.01001
1438.0,0.003829
