interpolation:linear
wavelength,value
280.0,1.543e-20
280.5,4.553e-19
281.0,2.356e-18
281.5,4.207e-19
282.0,1.568e-18
282.5,4.29e-18
283.0,1.407e-17
283.5,2.311e-17
284.0,3.674e-16
284.5,1.044e-15
285.0,1.914e-15
285.5,1.056e-14
286.0,4.353e-14
286.5,1.993e-13
287.0,5.735e-13
287.5,2.194e-12
288.0,6.027e-12
288.5,2.26e-11
289.0,7.148e-11
289.5,2.513e-10
290.0,7.775e-10
290.5,1.726e-09
291.0,4.07e-09
291.5,1.306e-08
292.0,3.457e-08
292.5,5.485e-08
293.0,1.38e-07
293.5,4.212e-07
294.0,7.808e-07
294.5,1.042e-06
295.0,2.088e-06
295.5,5.507e-06
296.0,1.079e-05
296.5,1.531e-05
297.0,2.098e-05
297.5,5.727e-05
298.0,9.162e-05
298.5,9.327e-05
299.0,0.0002081
299.5,0.0003521
300.0,0.0003921
300.5,0.0005754
301.0,0.001065
301.5,0.00174
302.0,0.001511
302.5,0.002898
303.0,0.005078
303.5,0.006288
304.0,0.005836
304.5,0.008429
305.0,0.0122
305.5,0.01357
306.0,0.01299
306.5,0.01587
307.0,0.02259
307.5,0.02886
308.0,0.03029
308.5,0.03508
309.0,0.03411
309.5,0.03798
310.0,0.03767
310.5,0.06064
311.0,0.07531
311.5,0.07237
312.0,0.0707
312.5,0.0847
313.0,0.09112
313.5,0.08916
314.0,0.1094
314.5,0.09458
315.0,0.1237
315.5,0.1048
316.0,0.08965
316.5,0.1265
317.0,0.1571
317.5,0.1643
318.0,0.1266
318.5,0.1535
319.0,0.1801
319.5,0.1496
320.0,0.1813
320.5,0.2215
321.0,0.193
321.5,0.1846
322.0,0.2014
322.5,0.175
323.0,0.1717
323.5,0.2079
324.0,0.2421
324.5,0.2473
325.0,0.2154
325.5,0.2736
326.0,0.3333
326.5,0.331
327.0,0.3309
327.5,0.3209
328.0,0.2889
328.5,0.2996
329.0,0.3549
329.5,0.4016
330.0,0.4062
330.5,0.3278
331.0,0.3349
331.5,0.3383
332.0,0.3622
332.5,0.3568
333.0,0.3567
333.5,0.3249
334.0,0.3333
334.5,0.3817
335.0,0.3571
335.5,0.4171
336.0,0.2886
336.5,0.3387
337.0,0.2787
337.5,0.3471
338.0,0.3368
338.5,0.3887
339.0,0.3846
339.5,0.37
340.0,0.435
340.5,0.3919
341.0,0.3822
341.5,0.3508
342.0,0.4193
342.5,0.3922
343.0,0.4315
343.5,0.4063
344.0,0.3003
344.5,0.3034
345.0,0.4013
345.5,0.4097
346.0,0.3482
346.5,0.3942
347.0,0.4233
347.5,0.3423
348.0,0.3901
348.5,0.3899
349.0,0.3617
349.5,0.3582
350.0,0.443
350.5,0.4673
351.0,0.4175
351.5,0.4059
352.0,0.4359
352.5,0.3401
353.0,0.4284
353.5,0.4581
354.0,0.4755
354.5,0.4823
355.0,0.4807
355.5,0.4343
356.0,0.4544
356.5,0.388
357.0,0.3206
357.5,0.3925
358.0,0.3111
358.5,0.2658
359.0,0.3719
359.5,0.474
360.0,0.5025
360.5,0.4016
361.0,0.3661
361.5,0.4216
362.0,0.3646
362.5,0.5046
363.0,0.4532
363.5,0.4175
364.0,0.5106
364.5,0.4364
365.0,0.4445
365.5,0.5579
366.0,0.5912
366.5,0.5555
367.0,0.541
367.5,0.5615
368.0,0.4914
368.5,0.4959
369.0,0.5355
369.5,0.5708
370.0,0.6086
370.5,0.4724
371.0,0.5048
371.5,0.6316
372.0,0.4192
372.5,0.5027
373.0,0.5114
373.5,0.3327
374.0,0.4835
374.5,0.4005
375.0,0.3893
375.5,0.5813
376.0,0.4819
376.5,0.4995
377.0,0.5288
377.5,0.6187
378.0,0.6708
378.5,0.6341
379.0,0.5233
379.5,0.4781
380.0,0.4971
380.5,0.6021
381.0,0.6034
381.5,0.4784
382.0,0.4249
382.5,0.3622
383.0,0.3354
383.5,0.323
384.0,0.3564
384.5,0.5242
385.0,0.5199
385.5,0.4842
386.0,0.4147
386.5,0.5448
387.0,0.4528
387.5,0.5086
388.0,0.4696
388.5,0.4643
389.0,0.5012
389.5,0.6071
390.0,0.6093
390.5,0.5608
391.0,0.6602
391.5,0.6734
392.0,0.5672
392.5,0.5079
393.0,0.2826
393.5,0.2054
394.0,0.4181
394.5,0.5316
395.0,0.6488
395.5,0.6591
396.0,0.5715
396.5,0.3341
397.0,0.2507
397.5,0.51
398.0,0.7142
398.5,0.7383
399.0,0.7995
399.5,0.797
400.0,0.8276
401.0,0.8403
402.0,0.8867
403.0,0.8424
404.0,0.8295
405.0,0.8295
406.0,0.816
407.0,0.8029
408.0,0.8344
409.0,0.8931
410.0,0.7805
411.0,0.8454
412.0,0.9081
413.0,0.8857
414.0,0.8966
415.0,0.899
416.0,0.9147
417.0,0.8923
418.0,0.8759
419.0,0.8874
420.0,0.8836
421.0,0.9244
422.0,0.8787
423.0,0.8584
424.0,0.908
425.0,0.9063
426.0,0.8828
427.0,0.8663
428.0,0.844
429.0,0.7994
430.0,0.6996
431.0,0.6935
432.0,0.8954
433.0,0.9003
434.0,0.8361
435.0,0.8732
436.0,0.9838
437.0,0.9705
438.0,0.8838
439.0,0.9143
440.0,0.9434
441.0,0.9775
442.0,1.048
443.0,1.021
444.0,1.043
445.0,1.021
446.0,0.9741
447.0,1.053
448.0,1.07
449.0,1.074
450.0,1.104
451.0,1.145
452.0,1.103
453.0,1.037
454.0,1.083
455.0,1.089
456.0,1.115
457.0,1.134
458.0,1.095
459.0,1.089
460.0,1.092
461.0,1.118
462.0,1.126
463.0,1.118
464.0,1.1
465.0,1.086
466.0,1.096
467.0,1.076
468.0,1.089
469.0,1.095
470.0,1.06
471.0,1.058
472.0,1.115
473.0,1.101
474.0,1.102
475.0,1.112
476.0,1.079
477.0,1.082
478.0,1.112
479.0,1.105
480.0,1.107
481.0,1.128
482.0,1.133
483.0,1.119
484.0,1.096
485.0,1.045
486.0,0.913
487.0,0.9567
488.0,1.05
489.0,1.053
490.0,1.108
491.0,1.088
492.0,1.028
493.0,1.061
494.0,1.072
495.0,1.081
496.0,1.088
497.0,1.105
498.0,1.053
499.0,1.067
500.0,1.036
501.0,1.017
502.0,1.003
503.0,1.044
504.0,1.018
505.0,1.054
506.0,1.088
507.0,1.035
508.0,1.003
509.0,1.031
510.0,1.025
511.0,1.052
512.0,1.064
513.0,1.007
514.0,0.9998
515.0,0.9899
516.0,0.9875
517.0,0.8774
518.0,0.9225
519.0,0.9676
520.0,1.003
521.0,1.012
522.0,1.013
523.0,0.9951
524.0,1.031
525.0,1.043
526.0,0.9967
527.0,0.9393
528.0,0.9936
529.0,1.047
530.0,1.032
531.0,1.048
532.0,1.012
533.0,0.9822
534.0,1.011
535.0,1.033
536.0,1.043
537.0,1.001
538.0,1.019
539.0,1.01
540.0,0.9688
541.0,0.9755
542.0,1.006
543.0,0.9953
544.0,1.013
545.0,1.01
546.0,1.014
547.0,1.014
548.0,1.001
549.0,1.004
550.0,1.016
551.0,1.004
552.0,1.011
553.0,0.9929
554.0,1.017
555.0,1.019
556.0,1.006
557.0,0.9744
558.0,0.9671
559.0,0.9492
560.0,0.9612
561.0,0.9737
562.0,0.9668
563.0,0.9934
564.0,0.9665
565.0,0.9583
566.0,0.9443
567.0,0.9624
568.0,0.9542
569.0,0.9323
570.0,0.9319
571.0,0.9261
572.0,0.9489
573.0,0.9591
574.0,0.9562
575.0,0.9385
576.0,0.9299
577.0,0.94
578.0,0.9256
579.0,0.9289
580.0,0.946
581.0,0.9505
582.0,0.9681
583.0,0.9702
584.0,0.9784
585.0,0.9544
586.0,0.9348
587.0,0.9555
588.0,0.9333
589.0,0.8288
590.0,0.8665
591.0,0.9158
592.0,0.9049
593.0,0.9174
594.0,0.9114
595.0,0.8896
596.0,0.9231
597.0,0.9135
598.0,0.9107
599.0,0.9113
600.0,0.9122
601.0,0.9045
602.0,0.8983
603.0,0.913
604.0,0.928
605.0,0.9232
606.0,0.9192
607.0,0.9281
608.0,0.9177
609.0,0.9192
610.0,0.9124
611.0,0.9171
612.0,0.9143
613.0,0.9028
614.0,0.8903
615.0,0.9095
616.0,0.8795
617.0,0.8776
618.0,0.9113
619.0,0.902
620.0,0.9078
621.0,0.9088
622.0,0.8983
623.0,0.8847
624.0,0.8694
625.0,0.8675
626.0,0.8803
627.0,0.8905
628.0,0.8357
629.0,0.8708
630.0,0.8509
631.0,0.8688
632.0,0.8581
633.0,0.8836
634.0,0.8746
635.0,0.888
636.0,0.876
637.0,0.8902
638.0,0.8984
639.0,0.8882
640.0,0.8794
641.0,0.8787
642.0,0.8746
643.0,0.8863
644.0,0.8833
645.0,0.8848
646.0,0.8646
647.0,0.8555
648.0,0.8564
649.0,0.8399
650.0,0.8425
651.0,0.8788
652.0,0.8437
653.0,0.867
654.0,0.8573
655.0,0.8261
656.0,0.7316
657.0,0.7513
658.0,0.8415
659.0,0.8473
660.0,0.8508
661.0,0.8567
662.0,0.8587
663.0,0.8416
664.0,0.8512
665.0,0.8516
666.0,0.8521
667.0,0.8512
668.0,0.8514
669.0,0.8645
670.0,0.8607
671.0,0.8604
672.0,0.853
673.0,0.8658
674.0,0.8625
675.0,0.8546
676.0,0.8604
677.0,0.8518
678.0,0.8541
679.0,0.8403
680.0,0.847
681.0,0.8414
682.0,0.8403
683.0,0.8387
684.0,0.8345
685.0,0.8416
686.0,0.8367
687.0,0.5728
688.0,0.6631
689.0,0.6652
690.0,0.6949
691.0,0.7283
692.0,0.7523
693.0,0.7464
694.0,0.7401
695.0,0.7687
696.0,0.7697
697.0,0.8142
698.0,0.8016
699.0,0.7842
700.0,0.7747
701.0,0.7674
702.0,0.7721
703.0,0.7735
704.0,0.7972
705.0,0.7984
706.0,0.7973
707.0,0.7977
708.0,0.7995
709.0,0.8
710.0,0.8003
711.0,0.799
712.0,0.7963
713.0,0.7885
714.0,0.7914
715.0,0.7671
716.0,0.7677
717.0,0.6722
718.0,0.6184
719.0,0.5671
720.0,0.5946
721.0,0.6524
722.0,0.7422
723.0,0.6931
724.0,0.627
725.0,0.6178
726.0,0.6463
727.0,0.654
728.0,0.6166
729.0,0.6374
730.0,0.6745
731.0,0.646
732.0,0.6886
733.0,0.7266
734.0,0.7432
735.0,0.7282
736.0,0.7272
737.0,0.7302
738.0,0.7399
739.0,0.7253
740.0,0.7437
741.0,0.7361
742.0,0.7365
743.0,0.7551
744.0,0.7528
745.0,0.7528
746.0,0.7563
747.0,0.7579
748.0,0.7563
749.0,0.7477
750.0,0.7472
751.0,0.7396
752.0,0.7428
753.0,0.7465
754.0,0.7482
755.0,0.744
756.0,0.7436
757.0,0.7447
758.0,0.7355
759.0,0.7214
760.0,0.1358
761.0,0.07432
762.0,0.3856
763.0,0.2018
764.0,0.2954
765.0,0.3857
766.0,0.4659
767.0,0.5803
768.0,0.6636
769.0,0.6762
770.0,0.6977
771.0,0.7026
772.0,0.7039
773.0,0.7088
774.0,0.7053
775.0,0.6999
776.0,0.7084
777.0,0.6991
778.0,0.6948
779.0,0.6954
780.0,0.6915
781.0,0.6922
782.0,0.6965
783.0,0.6844
784.0,0.6876
785.0,0.6826
786.0,0.6902
787.0,0.6788
788.0,0.6706
789.0,0.6704
790.0,0.6536
791.0,0.6583
792.0,0.6533
793.0,0.6429
794.0,0.6529
795.0,0.6642
796.0,0.645
797.0,0.6459
798.0,0.6635
799.0,0.6595
800.0,0.6484
801.0,0.6466
802.0,0.6447
803.0,0.64
804.0,0.6407
805.0,0.6383
806.0,0.6557
807.0,0.6479
808.0,0.6484
809.0,0.6367
810.0,0.6318
811.0,0.6333
812.0,0.616
813.0,0.6037
814.0,0.534
815.0,0.5306
816.0,0.4943
817.0,0.503
818.0,0.4848
819.0,0.5395
820.0,0.5091
821.0,0.5916
822.0,0.5752
823.0,0.3966
824.0,0.5597
825.0,0.5815
826.0,0.5605
827.0,0.5904
828.0,0.5036
829.0,0.5568
830.0,0.5499
831.0,0.5517
832.0,0.5353
833.0,0.568
834.0,0.5489
835.0,0.6009
836.0,0.5765
837.0,0.6024
838.0,0.5843
839.0,0.5932
840.0,0.6061
841.0,0.5977
842.0,0.5986
843.0,0.5979
844.0,0.5898
845.0,0.6094
846.0,0.6067
847.0,0.5953
848.0,0.5918
849.0,0.5749
850.0,0.5508
851.0,0.5834
852.0,0.5792
853.0,0.5574
854.0,0.4813
855.0,0.5287
856.0,0.5778
857.0,0.5906
858.0,0.5863
859.0,0.5867
860.0,0.5877
861.0,0.5845
862.0,0.5937
863.0,0.6077
864.0,0.5773
865.0,0.5723
866.0,0.5146
867.0,0.537
868.0,0.5843
869.0,0.5722
870.0,0.5885
871.0,0.5805
872.0,0.5784
873.0,0.5773
874.0,0.5704
875.0,0.5589
876.0,0.5647
877.0,0.5704
878.0,0.5766
879.0,0.5677
880.0,0.5556
881.0,0.5473
882.0,0.5591
883.0,0.5608
884.0,0.5583
885.0,0.5625
886.0,0.5363
887.0,0.5418
888.0,0.5499
889.0,0.556
890.0,0.5516
891.0,0.5505
892.0,0.5349
893.0,0.5185
894.0,0.501
895.0,0.4742
896.0,0.4471
897.0,0.3852
898.0,0.4197
899.0,0.3205
900.0,0.429
901.0,0.336
902.0,0.3925
903.0,0.3969
904.0,0.4972
905.0,0.4804
906.0,0.4499
907.0,0.3672
908.0,0.3742
909.0,0.4046
910.0,0.3592
911.0,0.382
912.0,0.3991
913.0,0.3646
914.0,0.3612
915.0,0.3915
916.0,0.3317
917.0,0.4196
918.0,0.3402
919.0,0.4269
920.0,0.4305
921.0,0.4477
922.0,0.4011
923.0,0.4324
924.0,0.4112
925.0,0.4023
926.0,0.4067
927.0,0.4544
928.0,0.3357
929.0,0.307
930.0,0.2421
931.0,0.2292
932.0,0.1659
933.0,0.1352
934.0,0.07488
935.0,0.138
936.0,0.08665
937.0,0.08787
938.0,0.1079
939.0,0.2221
940.0,0.2667
941.0,0.2019
942.0,0.2334
943.0,0.154
944.0,0.1617
945.0,0.2081
946.0,0.1065
947.0,0.2092
948.0,0.1538
949.0,0.2795
950.0,0.0785
951.0,0.2751
952.0,0.1485
953.0,0.1913
954.0,0.2341
955.0,0.1935
956.0,0.1875
957.0,0.1488
958.0,0.265
959.0,0.2111
960.0,0.2366
961.0,0.2651
962.0,0.2509
963.0,0.2889
964.0,0.2647
965.0,0.2878
966.0,0.2879
967.0,0.2867
968.0,0.3831
969.0,0.4003
970.0,0.3678
971.0,0.4204
972.0,0.4023
973.0,0.3508
974.0,0.333
975.0,0.3455
976.0,0.3283
977.0,0.3731
978.0,0.3547
979.0,0.3713
980.0,0.3492
981.0,0.418
982.0,0.3998
983.0,0.384
984.0,0.4304
985.0,0.3983
986.0,0.4379
987.0,0.4295
988.0,0.4287
989.0,0.4364
990.0,0.4261
991.0,0.4378
992.0,0.4403
993.0,0.4306
994.0,0.4401
995.0,0.4396
996.0,0.4376
997.0,0.4383
998.0,0.4362
999.0,0.4346
1000.0,0.4316
1001.0,0.4369
1002.0,0.425
1003.0,0.4292
1004.0,0.4187
1005.0,0.4034
1006.0,0.4191
1007.0,0.428
1008.0,0.4257
1009.0,0.4235
1010.0,0.4217
1011.0,0.4258
1012.0,0.4222
1013.0,0.4248
1014.0,0.4218
1015.0,0.419
1016.0,0.4172
1017.0,0.4182
1018.0,0.4166
1019.0,0.4078
1020.0,0.4144
1021.0,0.4139
1022.0,0.4107
1023.0,0.415
1024.0,0.4097
1025.0,0.4147
1026.0,0.413
1027.0,0.412
1028.0,0.4111
1029.0,0.4063
1030.0,0.4091
1031.0,0.4074
1032.0,0.4062
1033.0,0.4001
1034.0,0.4001
1035.0,0.4014
1036.0,0.4035
1037.0,0.3969
1038.0,0.3987
1039.0,0.3984
1040.0,0.3968
1041.0,0.3984
1042.0,0.3956
1043.0,0.3944
1044.0,0.3958
1045.0,0.3904
1046.0,0.3861
1047.0,0.3896
1048.0,0.3917
1049.0,0.3903
1050.0,0.3885
1051.0,0.388
1052.0,0.3864
1053.0,0.3833
1054.0,0.3842
1055.0,0.3844
1056.0,0.383
1057.0,0.3818
1058.0,0.3725
1059.0,0.3729
1060.0,0.3723
1061.0,0.3719
1062.0,0.3738
1063.0,0.3701
1064.0,0.3745
1065.0,0.3718
1066.0,0.3645
1067.0,0.3692
1068.0,0.3611
1069.0,0.35
1070.0,0.3619
1071.0,0.3675
1072.0,0.3632
1073.0,0.358
1074.0,0.3672
1075.0,0.3489
1076.0,0.3669
1077.0,0.3604
1078.0,0.3536
1079.0,0.361
1080.0,0.3549
1081.0,0.3436
1082.0,0.349
1083.0,0.35
1084.0,0.3427
1085.0,0.3557
1086.0,0.3247
1087.0,0.335
1088.0,0.3497
1089.0,0.339
1090.0,0.3316
1091.0,0.3485
1092.0,0.3476
1093.0,0.2951
1094.0,0.3181
1095.0,0.3074
1096.0,0.2944
1097.0,0.3396
1098.0,0.2899
1099.0,0.3023
1100.0,0.2812
1101.0,0.2846
1102.0,0.272
1103.0,0.2694
1104.0,0.2697
1105.0,0.2954
1106.0,0.2265
1107.0,0.2807
1108.0,0.2383
1109.0,0.2386
1110.0,0.2783
1111.0,0.1892
1112.0,0.2368
1113.0,0.1511
1114.0,0.1689
1115.0,0.14
1116.0,0.112
1117.0,0.04134
1118.0,0.1218
1119.0,0.06058
1120.0,0.07627
1121.0,0.1011
1122.0,0.04267
1123.0,0.06892
1124.0,0.05817
1125.0,0.07586
1126.0,0.0265
1127.0,0.08556
1128.0,0.05129
1129.0,0.05441
1130.0,0.03584
1131.0,0.162
1132.0,0.1271
1133.0,0.0807
1134.0,0.02069
1135.0,0.007749
1136.0,0.06737
1137.0,0.1592
1138.0,0.1122
1139.0,0.167
1140.0,0.1396
1141.0,0.1066
1142.0,0.1226
1143.0,0.1739
1144.0,0.06088
1145.0,0.07784
1146.0,0.08395
1147.0,0.02962
1148.0,0.1505
1149.0,0.1203
1150.0,0.06547
1151.0,0.1113
1152.0,0.1369
1153.0,0.1333
1154.0,0.07545
1155.0,0.1742
1156.0,0.1569
1157.0,0.1759
1158.0,0.174
1159.0,0.1876
1160.0,0.1605
1161.0,0.1973
1162.0,0.1983
1163.0,0.2669
1164.0,0.2293
1165.0,0.2167
1166.0,0.2149
1167.0,0.2339
1168.0,0.2366
1169.0,0.242
1170.0,0.2627
1171.0,0.2562
1172.0,0.2606
1173.0,0.2621
1174.0,0.1883
1175.0,0.2559
1176.0,0.2806
1177.0,0.2698
1178.0,0.2036
1179.0,0.2829
1180.0,0.2532
1181.0,0.2612
1182.0,0.1813
1183.0,0.2571
1184.0,0.2413
1185.0,0.2332
1186.0,0.2753
1187.0,0.2626
1188.0,0.1845
1189.0,0.2447
1190.0,0.269
1191.0,0.2561
1192.0,0.2727
1193.0,0.2616
1194.0,0.2694
1195.0,0.2553
1196.0,0.2462
1197.0,0.2693
1198.0,0.2468
1199.0,0.211
1200.0,0.2583
1201.0,0.2495
1202.0,0.2478
1203.0,0.2458
1204.0,0.2156
1205.0,0.2533
1206.0,0.2791
1207.0,0.2473
1208.0,0.2431
1209.0,0.248
1210.0,0.2581
1211.0,0.2462
1212.0,0.2438
1213.0,0.2702
1214.0,0.2494
1215.0,0.2448
1216.0,0.2693
1217.0,0.2625
1218.0,0.2672
1219.0,0.264
1220.0,0.2674
1221.0,0.2699
1222.0,0.2631
1223.0,0.2607
1224.0,0.2593
1225.0,0.2682
1226.0,0.2699
1227.0,0.2496
1228.0,0.2711
1229.0,0.2699
1230.0,0.2654
1231.0,0.2725
1232.0,0.2709
1233.0,0.2622
1234.0,0.2722
1235.0,0.2705
1236.0,0.2725
1237.0,0.2689
1238.0,0.2715
1239.0,0.2681
1240.0,0.269
1241.0,0.2679
1242.0,0.2672
1243.0,0.265
1244.0,0.267
1245.0,0.2681
1246.0,0.2665
1247.0,0.2655
1248.0,0.2654
1249.0,0.2662
1250.0,0.2646
1251.0,0.2613
1252.0,0.2612
1253.0,0.2593
1254.0,0.2568
1255.0,0.261
1256.0,0.254
1257.0,0.2527
1258.0,0.2571
1259.0,0.2483
1260.0,0.2496
1261.0,0.2362
1262.0,0.2295
1263.0,0.2299
1264.0,0.213
1265.0,0.2284
1266.0,0.2203
1267.0,0.2238
1268.0,0.2128
1269.0,0.1354
1270.0,0.2231
1271.0,0.2354
1272.0,0.236
1273.0,0.2336
1274.0,0.2343
1275.0,0.2375
1276.0,0.2397
1277.0,0.2412
1278.0,0.2455
1279.0,0.2433
1280.0,0.2402
1281.0,0.2291
1282.0,0.2205
1283.0,0.2376
1284.0,0.2433
1285.0,0.2449
1286.0,0.2481
1287.0,0.2444
1288.0,0.2443
1289.0,0.237
1290.0,0.2421
1291.0,0.2455
1292.0,0.2314
1293.0,0.2409
1294.0,0.2392
1295.0,0.2382
1296.0,0.2279
1297.0,0.216
1298.0,0.2317
1299.0,0.2411
1300.0,0.2054
1301.0,0.2114
1302.0,0.231
1303.0,0.2025
1304.0,0.1739
1305.0,0.2263
1306.0,0.2264
1307.0,0.1772
1308.0,0.2026
1309.0,0.2248
1310.0,0.1739
1311.0,0.1946
1312.0,0.1895
1313.0,0.186
1314.0,0.1669
1315.0,0.1649
1316.0,0.1917
1317.0,0.1817
1318.0,0.197
1319.0,0.1552
1320.0,0.1502
1321.0,0.1745
1322.0,0.1764
1323.0,0.1337
1324.0,0.1523
1325.0,0.189
1326.0,0.1628
1327.0,0.1555
1328.0,0.1344
1329.0,0.1017
1330.0,0.132
1331.0,0.08048
1332.0,0.08283
1333.0,0.1151
1334.0,0.0971
1335.0,0.1332
1336.0,0.1058
1337.0,0.09374
1338.0,0.1014
1339.0,0.1009
1340.0,0.09791
1341.0,0.09608
1342.0,0.1009
1343.0,0.06921
1344.0,0.04139
1345.0,0.05965
1346.0,0.03017
1347.0,0.03077
1348.0,0.002099
1349.0,0.007436
1350.0,0.007647
1351.0,0.001945
1352.0,0.0005528
1353.0,2.985e-05
1354.0,9.921e-05
1355.0,8.999e-07
1356.0,1.465e-05
1357.0,2.229e-05
1358.0,1.061e-06
1359.0,1.462e-07
1360.0,5.012e-07
1361.0,6.768e-10
1362.0,2.011e-12
1363.0,6.975e-07
1364.0,2.904e-07
1365.0,7.833e-13
1366.0,2.979e-06
1367.0,1.202e-06
1368.0,7.442e-15
1369.0,1.091e-07
1370.0,5.59e-08
1371.0,3.326e-09
1372.0,6.612e-07
1373.0,1.259e-05
1374.0,5.622e-05
1375.0,0.0001024
1376.0,8.909e-05
1377.0,4.119e-05
1378.0,0.0003964
1379.0,1.734e-05
1380.0,2.561e-05
1381.0,6.859e-07
1382.0,6.028e-07
1383.0,9.351e-09
1384.0,1.253e-07
1385.0,5.469e-07
1386.0,5.515e-07
1387.0,5.981e-05
1388.0,1.183e-06
1389.0,0.0001942
1390.0,0.0001673
1391.0,0.0001126
1392.0,7.422e-06
1393.0,3.856e-05
1394.0,2.127e-05
1395.0,1.64e-07
1396.0,9.512e-10
1397.0,1.561e-05
1398.0,0.0004473
1399.0,0.0002835
1400.0,4.319e-10
1401.0,1.681e-09
1402.0,0.0007494
1403.0,0.0009511
1404.0,0.0002911
1405.0,8.246e-08
1406.0,0.0007702
1407.0,6.726e-05
1408.0,0.0006283
1409.0,0.0002167
1410.0,0.0001705
1411.0,0.0008349
1412.0,0.001113
1413.0,0.01111
1414.0,0.0001341
1415.0,6.521e-05
1416.0,0.01802
1417.0,0.005492
1418.0,0.006263
1419.0,0.0009735
1420.0,0.003833
1421.0,0.004145
1422.0,0.02352
1423.0,0.004564
1424.0,0.00855
1425.0,0.01259
1426.0,0.01428
1427.0,0.02626
1428.0,0.001979
1429.0,0.01963
1430.0,0.0335
1431.0,0.03682
1432.0,0.001559
1433.0,0.02338
1434.0,0.01188
1435.0,0.01181
1436.0,0.02289
1437.0,0.01754
1438.0,0.007376
1439.0,0.03119
1440.0,0.02336
1441.0,0.01773
1442.0,0.01967
1443.0,0.02483
1444.0,0.03449
1445.0,0.02685
