interpolation:linear
wavelength,value
280.0,3.3980000000000005e-20
280.5,9.68e-19
281.0,4.952e-18
281.5,4.326e-19
282.0,1.833e-18
282.5,5.16e-18
283.0,1.715e-17
283.5,2.828e-17
284.0,4.472e-16
284.5,1.264e-15
285.0,2.199e-15
285.5,1.313e-14
286.0,5.549e-14
286.5,2.639e-13
287.0,7.773e-13
287.5,3.051e-12
288.0,9.242e-12
288.5,3.613e-11
289.0,1.203e-10
289.5,4.481e-10
290.0,1.456e-09
290.5,3.369e-09
291.0,8.343e-09
291.5,2.841e-08
292.0,7.819e-08
292.5,1.235e-07
293.0,3.085e-07
293.5,9.288e-07
294.0,1.706e-06
294.5,2.245e-06
295.0,4.425e-06
295.5,1.093e-05
296.0,2.097e-05
296.5,2.914e-05
297.0,3.921e-05
297.5,0.0001041
298.0,0.0001626
298.5,0.0001624
299.0,0.0003555
299.5,0.0005814
300.0,0.0006345
300.5,0.0009116
301.0,0.001627
301.5,0.002562
302.0,0.002181
302.5,0.004132
303.0,0.007129
303.5,0.008746
304.0,0.008066
304.5,0.01146
305.0,0.01624
305.5,0.01782
306.0,0.01697
306.5,0.02056
307.0,0.02874
307.5,0.03611
308.0,0.0378
308.5,0.04342
309.0,0.04196
309.5,0.04621
310.0,0.0456
310.5,0.07319
311.0,0.09051
311.5,0.0868
312.0,0.084
312.5,0.1
313.0,0.1072
313.5,0.1052
314.0,0.1282
314.5,0.1097
315.0,0.1433
315.5,0.1219
316.0,0.1035
316.5,0.1449
317.0,0.18
317.5,0.1887
318.0,0.1447
318.5,0.1739
319.0,0.2031
319.5,0.1699
320.0,0.2061
320.5,0.2495
321.0,0.2157
321.5,0.2061
322.0,0.2268
322.5,0.197
323.0,0.1921
323.5,0.2315
324.0,0.2692
324.5,0.2757
325.0,0.2408
325.5,0.3045
326.0,0.3703
326.5,0.3667
327.0,0.3669
327.5,0.3562
328.0,0.3219
328.5,0.3323
329.0,0.3922
329.5,0.4432
330.0,0.4486
330.5,0.363
331.0,0.3712
331.5,0.3741
332.0,0.3994
332.5,0.3929
333.0,0.393
333.5,0.3588
334.0,0.3681
334.5,0.4204
335.0,0.3928
335.5,0.4587
336.0,0.3174
336.5,0.3727
337.0,0.307
337.5,0.3824
338.0,0.3703
338.5,0.4273
339.0,0.4228
339.5,0.4067
340.0,0.478
340.5,0.4305
341.0,0.4199
341.5,0.3854
342.0,0.4605
342.5,0.4308
343.0,0.4739
343.5,0.4463
344.0,0.3297
344.5,0.3331
345.0,0.4406
345.5,0.4497
346.0,0.3821
346.5,0.4326
347.0,0.4645
347.5,0.3755
348.0,0.428
348.5,0.4277
349.0,0.3967
349.5,0.3928
350.0,0.4858
350.5,0.5123
351.0,0.4577
351.5,0.445
352.0,0.4778
352.5,0.3728
353.0,0.4695
353.5,0.5019
354.0,0.521
354.5,0.5284
355.0,0.5267
355.5,0.4757
356.0,0.4977
356.5,0.425
357.0,0.3511
357.5,0.4299
358.0,0.3407
358.5,0.2911
359.0,0.4072
359.5,0.519
360.0,0.5501
360.5,0.4397
361.0,0.4008
361.5,0.4614
362.0,0.3989
362.5,0.552
363.0,0.4958
363.5,0.4566
364.0,0.5584
364.5,0.4773
365.0,0.4861
365.5,0.6101
366.0,0.6463
366.5,0.6072
367.0,0.5914
367.5,0.6137
368.0,0.537
368.5,0.5419
369.0,0.5852
369.5,0.6237
370.0,0.6649
370.5,0.516
371.0,0.5514
371.5,0.6898
372.0,0.4579
372.5,0.549
373.0,0.5584
373.5,0.3633
374.0,0.5279
374.5,0.4372
375.0,0.425
375.5,0.6345
376.0,0.526
376.5,0.5452
377.0,0.5772
377.5,0.6752
378.0,0.732
378.5,0.6919
379.0,0.571
379.5,0.5217
380.0,0.5424
380.5,0.6569
381.0,0.6583
381.5,0.5218
382.0,0.4634
382.5,0.395
383.0,0.3657
383.5,0.3522
384.0,0.3885
384.5,0.5715
385.0,0.5667
385.5,0.5278
386.0,0.452
386.5,0.5938
387.0,0.4934
387.5,0.5542
388.0,0.5117
388.5,0.5058
389.0,0.546
389.5,0.6613
390.0,0.6637
390.5,0.6108
391.0,0.719
391.5,0.7334
392.0,0.6177
392.5,0.553
393.0,0.3077
393.5,0.2237
394.0,0.4552
394.5,0.5787
395.0,0.7062
395.5,0.7174
396.0,0.622
396.5,0.3636
397.0,0.2729
397.5,0.5549
398.0,0.7772
398.5,0.8034
399.0,0.8698
399.5,0.867
400.0,0.9004
401.0,0.9147
402.0,0.965
403.0,0.9166
404.0,0.9025
405.0,0.9024
406.0,0.8876
407.0,0.8733
408.0,0.9074
409.0,0.9712
410.0,0.8486
411.0,0.9191
412.0,0.987
413.0,0.9626
414.0,0.9743
415.0,0.9768
416.0,0.9938
417.0,0.9693
418.0,0.9514
419.0,0.9639
420.0,0.9596
421.0,1.004
422.0,0.9541
423.0,0.932
424.0,0.9857
425.0,0.9838
426.0,0.9581
427.0,0.9402
428.0,0.9159
429.0,0.8673
430.0,0.759
431.0,0.7524
432.0,0.9712
433.0,0.9765
434.0,0.9068
435.0,0.947
436.0,1.067
437.0,1.052
438.0,0.9581
439.0,0.9912
440.0,1.023
441.0,1.059
442.0,1.136
443.0,1.107
444.0,1.131
445.0,1.106
446.0,1.055
447.0,1.141
448.0,1.159
449.0,1.163
450.0,1.195
451.0,1.24
452.0,1.194
453.0,1.123
454.0,1.172
455.0,1.179
456.0,1.207
457.0,1.227
458.0,1.186
459.0,1.18
460.0,1.183
461.0,1.21
462.0,1.219
463.0,1.211
464.0,1.19
465.0,1.175
466.0,1.186
467.0,1.164
468.0,1.178
469.0,1.184
470.0,1.147
471.0,1.145
472.0,1.207
473.0,1.191
474.0,1.193
475.0,1.203
476.0,1.168
477.0,1.172
478.0,1.204
479.0,1.196
480.0,1.198
481.0,1.22
482.0,1.226
483.0,1.211
484.0,1.186
485.0,1.13
486.0,0.9872
487.0,1.034
488.0,1.135
489.0,1.139
490.0,1.198
491.0,1.177
492.0,1.111
493.0,1.147
494.0,1.159
495.0,1.169
496.0,1.176
497.0,1.194
498.0,1.138
499.0,1.153
500.0,1.12
501.0,1.099
502.0,1.084
503.0,1.129
504.0,1.102
505.0,1.14
506.0,1.177
507.0,1.12
508.0,1.085
509.0,1.115
510.0,1.108
511.0,1.138
512.0,1.15
513.0,1.088
514.0,1.081
515.0,1.07
516.0,1.067
517.0,0.9484
518.0,0.9971
519.0,1.046
520.0,1.084
521.0,1.094
522.0,1.095
523.0,1.076
524.0,1.115
525.0,1.128
526.0,1.078
527.0,1.016
528.0,1.075
529.0,1.133
530.0,1.117
531.0,1.134
532.0,1.095
533.0,1.063
534.0,1.094
535.0,1.118
536.0,1.128
537.0,1.083
538.0,1.102
539.0,1.093
540.0,1.048
541.0,1.055
542.0,1.088
543.0,1.077
544.0,1.096
545.0,1.092
546.0,1.097
547.0,1.097
548.0,1.083
549.0,1.086
550.0,1.099
551.0,1.086
552.0,1.093
553.0,1.074
554.0,1.1
555.0,1.102
556.0,1.088
557.0,1.054
558.0,1.046
559.0,1.027
560.0,1.04
561.0,1.054
562.0,1.046
563.0,1.075
564.0,1.046
565.0,1.037
566.0,1.022
567.0,1.042
568.0,1.034
569.0,1.011
570.0,1.01
571.0,1.004
572.0,1.029
573.0,1.04
574.0,1.037
575.0,1.018
576.0,1.008
577.0,1.019
578.0,1.004
579.0,1.007
580.0,1.025
581.0,1.029
582.0,1.048
583.0,1.05
584.0,1.059
585.0,1.033
586.0,1.012
587.0,1.034
588.0,1.011
589.0,0.8994
590.0,0.9402
591.0,0.9927
592.0,0.9815
593.0,0.9943
594.0,0.9882
595.0,0.9651
596.0,1.0
597.0,0.99
598.0,0.9865
599.0,0.987
600.0,0.9877
601.0,0.979
602.0,0.9723
603.0,0.9881
604.0,1.004
605.0,0.9989
606.0,0.9945
607.0,1.004
608.0,0.9926
609.0,0.9941
610.0,0.9867
611.0,0.9916
612.0,0.9886
613.0,0.976
614.0,0.9624
615.0,0.9831
616.0,0.9505
617.0,0.9484
618.0,0.9848
619.0,0.9747
620.0,0.9809
621.0,0.9821
622.0,0.9709
623.0,0.9563
624.0,0.9397
625.0,0.9375
626.0,0.9515
627.0,0.9628
628.0,0.9071
629.0,0.9428
630.0,0.9213
631.0,0.9394
632.0,0.9277
633.0,0.9548
634.0,0.9446
635.0,0.9589
636.0,0.9457
637.0,0.9609
638.0,0.9695
639.0,0.9583
640.0,0.9487
641.0,0.9478
642.0,0.9432
643.0,0.9558
644.0,0.9524
645.0,0.9541
646.0,0.9329
647.0,0.9239
648.0,0.925
649.0,0.9072
650.0,0.9089
651.0,0.9477
652.0,0.9113
653.0,0.935
654.0,0.9243
655.0,0.8915
656.0,0.789
657.0,0.8101
658.0,0.907
659.0,0.9131
660.0,0.9168
661.0,0.9232
662.0,0.9256
663.0,0.9071
664.0,0.917
665.0,0.9172
666.0,0.9176
667.0,0.9165
668.0,0.9166
669.0,0.9306
670.0,0.9264
671.0,0.9261
672.0,0.918
673.0,0.9317
674.0,0.9281
675.0,0.9196
676.0,0.9258
677.0,0.9165
678.0,0.919
679.0,0.9041
680.0,0.9112
681.0,0.9052
682.0,0.904
683.0,0.9023
684.0,0.8978
685.0,0.9053
686.0,0.9001
687.0,0.6321
688.0,0.7242
689.0,0.7263
690.0,0.7562
691.0,0.7897
692.0,0.8135
693.0,0.8074
694.0,0.8007
695.0,0.8297
696.0,0.8308
697.0,0.8764
698.0,0.8629
699.0,0.8457
700.0,0.8355
701.0,0.8281
702.0,0.8326
703.0,0.8341
704.0,0.8587
705.0,0.86
706.0,0.8584
707.0,0.8588
708.0,0.8607
709.0,0.8607
710.0,0.8613
711.0,0.8597
712.0,0.8565
713.0,0.8484
714.0,0.8515
715.0,0.8259
716.0,0.8267
717.0,0.7297
718.0,0.6723
719.0,0.6172
720.0,0.6475
721.0,0.7069
722.0,0.8002
723.0,0.7494
724.0,0.6802
725.0,0.6711
726.0,0.7016
727.0,0.7086
728.0,0.6699
729.0,0.6904
730.0,0.7306
731.0,0.7004
732.0,0.7444
733.0,0.7834
734.0,0.8007
735.0,0.7848
736.0,0.7837
737.0,0.787
738.0,0.796
739.0,0.7804
740.0,0.7998
741.0,0.7913
742.0,0.7915
743.0,0.8115
744.0,0.8088
745.0,0.8087
746.0,0.8124
747.0,0.8141
748.0,0.8124
749.0,0.8031
750.0,0.8026
751.0,0.7944
752.0,0.7978
753.0,0.8018
754.0,0.8036
755.0,0.7991
756.0,0.7987
757.0,0.7999
758.0,0.79
759.0,0.7757
760.0,0.163
761.0,0.09281
762.0,0.4315
763.0,0.2359
764.0,0.3366
765.0,0.4317
766.0,0.5136
767.0,0.6318
768.0,0.7164
769.0,0.7286
770.0,0.7502
771.0,0.7549
772.0,0.756
773.0,0.7612
774.0,0.7574
775.0,0.7516
776.0,0.7607
777.0,0.7507
778.0,0.7461
779.0,0.7467
780.0,0.7425
781.0,0.7433
782.0,0.7479
783.0,0.7348
784.0,0.7383
785.0,0.733
786.0,0.7411
787.0,0.7295
788.0,0.7211
789.0,0.721
790.0,0.7037
791.0,0.7079
792.0,0.7025
793.0,0.6913
794.0,0.7011
795.0,0.7135
796.0,0.6942
797.0,0.6952
798.0,0.7129
799.0,0.7089
800.0,0.6972
801.0,0.6956
802.0,0.6935
803.0,0.6886
804.0,0.6892
805.0,0.6863
806.0,0.7043
807.0,0.6961
808.0,0.6966
809.0,0.6845
810.0,0.6796
811.0,0.6817
812.0,0.664
813.0,0.6513
814.0,0.5792
815.0,0.5754
816.0,0.5364
817.0,0.5455
818.0,0.5265
819.0,0.5832
820.0,0.5513
821.0,0.6372
822.0,0.6201
823.0,0.4334
824.0,0.6046
825.0,0.6264
826.0,0.6049
827.0,0.636
828.0,0.5458
829.0,0.6007
830.0,0.5936
831.0,0.5954
832.0,0.5783
833.0,0.6119
834.0,0.5925
835.0,0.6462
836.0,0.6214
837.0,0.6478
838.0,0.629
839.0,0.6378
840.0,0.6514
841.0,0.6427
842.0,0.6432
843.0,0.642
844.0,0.6336
845.0,0.6543
846.0,0.6513
847.0,0.6389
848.0,0.6353
849.0,0.6173
850.0,0.5913
851.0,0.6265
852.0,0.6219
853.0,0.5983
854.0,0.5169
855.0,0.5675
856.0,0.6203
857.0,0.6339
858.0,0.6293
859.0,0.6297
860.0,0.6307
861.0,0.6273
862.0,0.6371
863.0,0.6522
864.0,0.6195
865.0,0.6141
866.0,0.5522
867.0,0.5762
868.0,0.627
869.0,0.614
870.0,0.6315
871.0,0.6229
872.0,0.6207
873.0,0.6194
874.0,0.612
875.0,0.5997
876.0,0.6059
877.0,0.612
878.0,0.6187
879.0,0.6092
880.0,0.5961
881.0,0.5874
882.0,0.6001
883.0,0.6019
884.0,0.5992
885.0,0.6037
886.0,0.576
887.0,0.5816
888.0,0.5905
889.0,0.5967
890.0,0.5923
891.0,0.591
892.0,0.5747
893.0,0.5577
894.0,0.54
895.0,0.5126
896.0,0.4839
897.0,0.4189
898.0,0.4553
899.0,0.3502
900.0,0.4642
901.0,0.367
902.0,0.4255
903.0,0.4314
904.0,0.5359
905.0,0.5185
906.0,0.4861
907.0,0.3997
908.0,0.407
909.0,0.4386
910.0,0.3919
911.0,0.4153
912.0,0.4332
913.0,0.3979
914.0,0.3938
915.0,0.4266
916.0,0.3622
917.0,0.4554
918.0,0.3716
919.0,0.4626
920.0,0.4652
921.0,0.4834
922.0,0.435
923.0,0.4668
924.0,0.4461
925.0,0.4364
926.0,0.4412
927.0,0.4912
928.0,0.3681
929.0,0.3381
930.0,0.2688
931.0,0.2542
932.0,0.1863
933.0,0.1531
934.0,0.08749
935.0,0.1552
936.0,0.09915
937.0,0.1008
938.0,0.1231
939.0,0.2463
940.0,0.2941
941.0,0.2249
942.0,0.2586
943.0,0.1724
944.0,0.1794
945.0,0.2314
946.0,0.1208
947.0,0.2332
948.0,0.1718
949.0,0.3092
950.0,0.09059
951.0,0.3039
952.0,0.1673
953.0,0.2134
954.0,0.2588
955.0,0.2155
956.0,0.2077
957.0,0.1679
958.0,0.2903
959.0,0.2338
960.0,0.262
961.0,0.2916
962.0,0.2762
963.0,0.3163
964.0,0.2905
965.0,0.3149
966.0,0.3155
967.0,0.3143
968.0,0.4142
969.0,0.4332
970.0,0.3988
971.0,0.4533
972.0,0.4343
973.0,0.3813
974.0,0.3623
975.0,0.3749
976.0,0.3577
977.0,0.4037
978.0,0.3849
979.0,0.4021
980.0,0.3787
981.0,0.4506
982.0,0.432
983.0,0.4154
984.0,0.463
985.0,0.4303
986.0,0.4703
987.0,0.462
988.0,0.4611
989.0,0.4684
990.0,0.4583
991.0,0.4699
992.0,0.4725
993.0,0.4629
994.0,0.4723
995.0,0.4716
996.0,0.4696
997.0,0.4703
998.0,0.4681
999.0,0.4663
1000.0,0.4633
1001.0,0.4688
1002.0,0.4567
1003.0,0.4606
1004.0,0.4495
1005.0,0.4328
1006.0,0.4498
1007.0,0.4593
1008.0,0.4569
1009.0,0.4546
1010.0,0.4528
1011.0,0.4569
1012.0,0.4531
1013.0,0.4558
1014.0,0.4526
1015.0,0.4496
1016.0,0.4476
1017.0,0.4488
1018.0,0.447
1019.0,0.4378
1020.0,0.4447
1021.0,0.444
1022.0,0.4407
1023.0,0.4454
1024.0,0.4399
1025.0,0.445
1026.0,0.4431
1027.0,0.4421
1028.0,0.4412
1029.0,0.436
1030.0,0.4389
1031.0,0.4372
1032.0,0.4359
1033.0,0.4293
1034.0,0.4293
1035.0,0.4307
1036.0,0.4329
1037.0,0.4259
1038.0,0.4278
1039.0,0.4275
1040.0,0.4258
1041.0,0.4275
1042.0,0.4246
1043.0,0.4232
1044.0,0.4247
1045.0,0.419
1046.0,0.4144
1047.0,0.4181
1048.0,0.4204
1049.0,0.419
1050.0,0.4171
1051.0,0.4165
1052.0,0.4148
1053.0,0.4116
1054.0,0.4125
1055.0,0.4128
1056.0,0.4114
1057.0,0.4101
1058.0,0.4001
1059.0,0.4006
1060.0,0.4
1061.0,0.3995
1062.0,0.4017
1063.0,0.3977
1064.0,0.4024
1065.0,0.3996
1066.0,0.3917
1067.0,0.3968
1068.0,0.3882
1069.0,0.3761
1070.0,0.389
1071.0,0.3947
1072.0,0.3904
1073.0,0.3847
1074.0,0.3944
1075.0,0.3754
1076.0,0.3941
1077.0,0.3875
1078.0,0.3804
1079.0,0.3877
1080.0,0.3815
1081.0,0.3697
1082.0,0.3749
1083.0,0.3759
1084.0,0.369
1085.0,0.3823
1086.0,0.3502
1087.0,0.3605
1088.0,0.3757
1089.0,0.3649
1090.0,0.3574
1091.0,0.3747
1092.0,0.3735
1093.0,0.3191
1094.0,0.3421
1095.0,0.3321
1096.0,0.3187
1097.0,0.3648
1098.0,0.314
1099.0,0.3272
1100.0,0.3052
1101.0,0.3087
1102.0,0.2955
1103.0,0.2931
1104.0,0.2934
1105.0,0.3199
1106.0,0.2488
1107.0,0.3046
1108.0,0.2607
1109.0,0.2606
1110.0,0.3023
1111.0,0.2083
1112.0,0.2585
1113.0,0.1679
1114.0,0.1873
1115.0,0.1554
1116.0,0.1261
1117.0,0.04853
1118.0,0.1364
1119.0,0.06946
1120.0,0.08752
1121.0,0.1151
1122.0,0.04994
1123.0,0.07902
1124.0,0.06672
1125.0,0.08662
1126.0,0.03165
1127.0,0.09758
1128.0,0.05999
1129.0,0.06342
1130.0,0.04239
1131.0,0.1812
1132.0,0.1429
1133.0,0.0926
1134.0,0.02489
1135.0,0.009262
1136.0,0.07798
1137.0,0.1787
1138.0,0.1263
1139.0,0.1844
1140.0,0.1556
1141.0,0.12
1142.0,0.1372
1143.0,0.1932
1144.0,0.06946
1145.0,0.08926
1146.0,0.0963
1147.0,0.03543
1148.0,0.1673
1149.0,0.1348
1150.0,0.07456
1151.0,0.1253
1152.0,0.1528
1153.0,0.1479
1154.0,0.08679
1155.0,0.1924
1156.0,0.1741
1157.0,0.1941
1158.0,0.192
1159.0,0.206
1160.0,0.1773
1161.0,0.216
1162.0,0.2172
1163.0,0.289
1164.0,0.2495
1165.0,0.2369
1166.0,0.2342
1167.0,0.2542
1168.0,0.2574
1169.0,0.2629
1170.0,0.2844
1171.0,0.2775
1172.0,0.2817
1173.0,0.2838
1174.0,0.2065
1175.0,0.2766
1176.0,0.3021
1177.0,0.2913
1178.0,0.2217
1179.0,0.3045
1180.0,0.2739
1181.0,0.2825
1182.0,0.1982
1183.0,0.2777
1184.0,0.2613
1185.0,0.2531
1186.0,0.2968
1187.0,0.2838
1188.0,0.2019
1189.0,0.2646
1190.0,0.29
1191.0,0.2772
1192.0,0.2939
1193.0,0.2823
1194.0,0.2905
1195.0,0.276
1196.0,0.2667
1197.0,0.29
1198.0,0.2662
1199.0,0.2294
1200.0,0.2788
1201.0,0.2699
1202.0,0.2677
1203.0,0.2656
1204.0,0.2338
1205.0,0.2731
1206.0,0.3
1207.0,0.2674
1208.0,0.2623
1209.0,0.2674
1210.0,0.2779
1211.0,0.2658
1212.0,0.264
1213.0,0.2908
1214.0,0.2696
1215.0,0.2648
1216.0,0.2898
1217.0,0.2828
1218.0,0.2875
1219.0,0.2843
1220.0,0.2877
1221.0,0.2903
1222.0,0.2831
1223.0,0.2807
1224.0,0.2794
1225.0,0.2885
1226.0,0.29
1227.0,0.2691
1228.0,0.2911
1229.0,0.2901
1230.0,0.2854
1231.0,0.2925
1232.0,0.2908
1233.0,0.2821
1234.0,0.292
1235.0,0.2903
1236.0,0.2923
1237.0,0.2887
1238.0,0.2913
1239.0,0.2876
1240.0,0.2886
1241.0,0.2876
1242.0,0.2867
1243.0,0.2843
1244.0,0.2864
1245.0,0.2876
1246.0,0.2859
1247.0,0.2849
1248.0,0.2849
1249.0,0.2856
1250.0,0.284
1251.0,0.2805
1252.0,0.2803
1253.0,0.2785
1254.0,0.276
1255.0,0.2801
1256.0,0.2731
1257.0,0.2717
1258.0,0.2762
1259.0,0.2674
1260.0,0.2687
1261.0,0.2551
1262.0,0.2483
1263.0,0.2488
1264.0,0.2315
1265.0,0.2472
1266.0,0.2389
1267.0,0.2424
1268.0,0.2311
1269.0,0.1516
1270.0,0.2418
1271.0,0.2541
1272.0,0.2547
1273.0,0.2522
1274.0,0.2528
1275.0,0.2561
1276.0,0.2583
1277.0,0.2597
1278.0,0.264
1279.0,0.2617
1280.0,0.2584
1281.0,0.2462
1282.0,0.2368
1283.0,0.2551
1284.0,0.2613
1285.0,0.263
1286.0,0.2662
1287.0,0.2626
1288.0,0.2624
1289.0,0.2551
1290.0,0.2601
1291.0,0.2635
1292.0,0.2494
1293.0,0.2588
1294.0,0.2571
1295.0,0.2563
1296.0,0.2459
1297.0,0.2335
1298.0,0.2495
1299.0,0.259
1300.0,0.2223
1301.0,0.2285
1302.0,0.2486
1303.0,0.2191
1304.0,0.1898
1305.0,0.2437
1306.0,0.244
1307.0,0.1928
1308.0,0.2189
1309.0,0.2423
1310.0,0.1893
1311.0,0.2106
1312.0,0.2053
1313.0,0.2018
1314.0,0.1817
1315.0,0.18
1316.0,0.2077
1317.0,0.1971
1318.0,0.213
1319.0,0.1699
1320.0,0.1639
1321.0,0.1897
1322.0,0.1921
1323.0,0.1473
1324.0,0.1666
1325.0,0.2049
1326.0,0.1776
1327.0,0.1698
1328.0,0.1473
1329.0,0.1129
1330.0,0.1458
1331.0,0.09069
1332.0,0.09274
1333.0,0.1284
1334.0,0.1076
1335.0,0.1467
1336.0,0.1174
1337.0,0.1046
1338.0,0.1131
1339.0,0.1122
1340.0,0.1085
1341.0,0.1075
1342.0,0.1128
1343.0,0.07958
1344.0,0.04751
1345.0,0.06826
1346.0,0.036
1347.0,0.03696
1348.0,0.002793
1349.0,0.0096
1350.0,0.009662
1351.0,0.002693
1352.0,0.0008418
1353.0,5.073e-05
1354.0,0.0001574
1355.0,1.779e-06
1356.0,2.511e-05
1357.0,3.807e-05
1358.0,2.079e-06
1359.0,3.369e-07
1360.0,1.04e-06
1361.0,1.993e-09
1362.0,6.918e-12
1363.0,1.51e-06
1364.0,6.383e-07
1365.0,3.243e-12
1366.0,6.172e-06
1367.0,2.434e-06
1368.0,4.456e-14
1369.0,2.425e-07
1370.0,1.329e-07
1371.0,8.642e-09
1372.0,1.341e-06
1373.0,2.277e-05
1374.0,9.421e-05
1375.0,0.0001715
1376.0,0.0001408
1377.0,6.626e-05
1378.0,0.0006134
1379.0,2.801e-05
1380.0,4.325e-05
1381.0,1.219e-06
1382.0,1.246e-06
1383.0,2.071e-08
1384.0,2.858e-07
1385.0,1.048e-06
1386.0,1.194e-06
1387.0,0.0001045
1388.0,2.093e-06
1389.0,0.0003127
1390.0,0.0002692
1391.0,0.0001846
1392.0,1.255e-05
1393.0,6.244e-05
1394.0,3.879e-05
1395.0,3.293e-07
1396.0,2.674e-09
1397.0,2.609e-05
1398.0,0.0006969
1399.0,0.0004415
1400.0,1.328e-09
1401.0,4.571e-09
1402.0,0.001054
1403.0,0.001363
1404.0,0.0004207
1405.0,1.756e-07
1406.0,0.001148
1407.0,9.861e-05
1408.0,0.0009315
1409.0,0.0003406
1410.0,0.0002592
1411.0,0.001192
1412.0,0.001546
1413.0,0.01414
1414.0,0.0002025
1415.0,0.0001013
1416.0,0.02187
1417.0,0.007044
1418.0,0.008073
1419.0,0.001273
1420.0,0.004956
1421.0,0.005372
1422.0,0.02843
1423.0,0.005621
1424.0,0.01043
1425.0,0.01551
1426.0,0.01721
1427.0,0.03078
1428.0,0.002654
1429.0,0.02341
1430.0,0.03894
1431.0,0.04254
1432.0,0.0021
1433.0,0.02738
1434.0,0.01408
1435.0,0.01461
1436.0,0.02737
1437.0,0.02096
1438.0,0.009082
1439.0,0.03686
1440.0,0.02764
1441.0,0.02145
1442.0,0.02373
1443.0,0.02922
1444.0,0.04021
1445.0,0.03193
1446.0,0.0145
1447.0,0.02282
1448.0,0.07412
1449.0,0.06478
1450.0,0.0169
