interpolation:linear
wavelength,value
280.0,2.1370000000000003e-20
280.5,6.219e-19
281.0,3.204e-18
281.5,4.143e-19
282.0,1.65e-18
282.5,4.582e-18
283.0,1.514e-17
283.5,2.492e-17
284.0,3.958e-16
284.5,1.123e-15
285.0,1.966e-15
285.5,1.11e-14
286.0,4.61e-14
286.5,2.131e-13
287.0,6.168e-13
287.5,2.374e-12
288.0,6.913e-12
288.5,2.656e-11
289.0,8.62e-11
289.5,3.117e-10
290.0,9.875e-10
290.5,2.236e-09
291.0,5.399e-09
291.5,1.783e-08
292.0,4.88e-08
292.5,7.737e-08
293.0,1.943e-07
293.5,5.908e-07
294.0,1.092e-06
294.5,1.45e-06
295.0,2.89e-06
295.5,7.404e-06
296.0,1.438e-05
296.5,2.024e-05
297.0,2.753e-05
297.5,7.428e-05
298.0,0.0001176
298.5,0.0001188
299.0,0.0002629
299.5,0.0004385
300.0,0.0004841
300.5,0.0007039
301.0,0.001282
301.5,0.002061
302.0,0.001774
302.5,0.003385
303.0,0.00589
303.5,0.007265
304.0,0.006724
304.5,0.009643
305.0,0.01383
305.5,0.01529
306.0,0.0146
306.5,0.01778
307.0,0.0251
307.5,0.03183
308.0,0.03336
308.5,0.0385
309.0,0.03734
309.5,0.04137
310.0,0.04095
310.5,0.06583
311.0,0.0816
311.5,0.07835
312.0,0.07622
312.5,0.09107
313.0,0.09783
313.5,0.09585
314.0,0.1172
314.5,0.1009
315.0,0.1319
315.5,0.1119
316.0,0.09543
316.5,0.1342
317.0,0.1667
317.5,0.1745
318.0,0.1342
318.5,0.1621
319.0,0.1897
319.5,0.1581
320.0,0.1917
320.5,0.2333
321.0,0.2025
321.5,0.1937
322.0,0.2121
322.5,0.1842
323.0,0.1803
323.5,0.2179
324.0,0.2536
324.5,0.2593
325.0,0.2261
325.5,0.2866
326.0,0.3489
326.5,0.3461
327.0,0.3461
327.5,0.3358
328.0,0.3028
328.5,0.3134
329.0,0.3706
329.5,0.4192
330.0,0.4241
330.5,0.3426
331.0,0.3502
331.5,0.3534
332.0,0.3779
332.5,0.3721
333.0,0.372
333.5,0.3392
334.0,0.348
334.5,0.398
335.0,0.3722
335.5,0.4347
336.0,0.3008
336.5,0.3531
337.0,0.2907
337.5,0.362
338.0,0.351
338.5,0.405
339.0,0.4008
339.5,0.3855
340.0,0.4532
340.5,0.4082
341.0,0.3982
341.5,0.3655
342.0,0.4367
342.5,0.4085
343.0,0.4494
343.5,0.4232
344.0,0.3127
344.5,0.3159
345.0,0.4179
345.5,0.4266
346.0,0.3625
346.5,0.4105
347.0,0.4407
347.5,0.3563
348.0,0.4061
348.5,0.4059
349.0,0.3765
349.5,0.3728
350.0,0.4611
350.5,0.4863
351.0,0.4345
351.5,0.4224
352.0,0.4536
352.5,0.3539
353.0,0.4458
353.5,0.4766
354.0,0.4948
354.5,0.5018
355.0,0.5002
355.5,0.4518
356.0,0.4727
356.5,0.4036
357.0,0.3335
357.5,0.4083
358.0,0.3236
358.5,0.2765
359.0,0.3868
359.5,0.493
360.0,0.5227
360.5,0.4177
361.0,0.3808
361.5,0.4384
362.0,0.3791
362.5,0.5247
363.0,0.4712
363.5,0.434
364.0,0.5308
364.5,0.4537
365.0,0.4621
365.5,0.58
366.0,0.6145
366.5,0.5774
367.0,0.5623
367.5,0.5836
368.0,0.5107
368.5,0.5154
369.0,0.5566
369.5,0.5932
370.0,0.6324
370.5,0.4909
371.0,0.5245
371.5,0.6562
372.0,0.4356
372.5,0.5223
373.0,0.5313
373.5,0.3457
374.0,0.5023
374.5,0.416
375.0,0.4044
375.5,0.6039
376.0,0.5006
376.5,0.5188
377.0,0.5493
377.5,0.6427
378.0,0.6967
378.5,0.6586
379.0,0.5435
379.5,0.4965
380.0,0.5163
380.5,0.6253
381.0,0.6267
381.5,0.4968
382.0,0.4412
382.5,0.3761
383.0,0.3482
383.5,0.3354
384.0,0.37
384.5,0.5442
385.0,0.5397
385.5,0.5027
386.0,0.4305
386.5,0.5656
387.0,0.47
387.5,0.5279
388.0,0.4875
388.5,0.4819
389.0,0.5202
389.5,0.6301
390.0,0.6324
390.5,0.582
391.0,0.6851
391.5,0.6988
392.0,0.5886
392.5,0.527
393.0,0.2933
393.5,0.2132
394.0,0.4338
394.5,0.5516
395.0,0.6731
395.5,0.6838
396.0,0.5929
396.5,0.3466
397.0,0.2601
397.5,0.529
398.0,0.7409
398.5,0.7659
399.0,0.8293
399.5,0.8267
400.0,0.8585
401.0,0.8719
402.0,0.9199
403.0,0.8738
404.0,0.8604
405.0,0.8604
406.0,0.8464
407.0,0.8328
408.0,0.8654
409.0,0.9262
410.0,0.8094
411.0,0.8767
412.0,0.9415
413.0,0.9183
414.0,0.9295
415.0,0.932
416.0,0.9482
417.0,0.925
418.0,0.9079
419.0,0.9198
420.0,0.9158
421.0,0.9581
422.0,0.9107
423.0,0.8896
424.0,0.9409
425.0,0.9392
426.0,0.9148
427.0,0.8977
428.0,0.8745
429.0,0.8282
430.0,0.7248
431.0,0.7185
432.0,0.9275
433.0,0.9326
434.0,0.8661
435.0,0.9045
436.0,1.019
437.0,1.005
438.0,0.9153
439.0,0.9469
440.0,0.977
441.0,1.012
442.0,1.086
443.0,1.058
444.0,1.08
445.0,1.057
446.0,1.009
447.0,1.09
448.0,1.107
449.0,1.112
450.0,1.143
451.0,1.185
452.0,1.142
453.0,1.074
454.0,1.121
455.0,1.128
456.0,1.154
457.0,1.173
458.0,1.134
459.0,1.128
460.0,1.131
461.0,1.157
462.0,1.166
463.0,1.158
464.0,1.138
465.0,1.124
466.0,1.134
467.0,1.114
468.0,1.127
469.0,1.133
470.0,1.097
471.0,1.095
472.0,1.154
473.0,1.139
474.0,1.141
475.0,1.151
476.0,1.117
477.0,1.12
478.0,1.151
479.0,1.144
480.0,1.146
481.0,1.167
482.0,1.173
483.0,1.158
484.0,1.134
485.0,1.081
486.0,0.9445
487.0,0.9896
488.0,1.086
489.0,1.089
490.0,1.146
491.0,1.126
492.0,1.063
493.0,1.098
494.0,1.109
495.0,1.118
496.0,1.125
497.0,1.143
498.0,1.089
499.0,1.103
500.0,1.071
501.0,1.052
502.0,1.037
503.0,1.08
504.0,1.054
505.0,1.091
506.0,1.126
507.0,1.071
508.0,1.038
509.0,1.066
510.0,1.06
511.0,1.089
512.0,1.1
513.0,1.041
514.0,1.034
515.0,1.024
516.0,1.021
517.0,0.9075
518.0,0.9541
519.0,1.001
520.0,1.037
521.0,1.047
522.0,1.048
523.0,1.029
524.0,1.066
525.0,1.079
526.0,1.031
527.0,0.9718
528.0,1.028
529.0,1.084
530.0,1.068
531.0,1.084
532.0,1.047
533.0,1.016
534.0,1.046
535.0,1.069
536.0,1.079
537.0,1.036
538.0,1.054
539.0,1.045
540.0,1.002
541.0,1.009
542.0,1.041
543.0,1.03
544.0,1.048
545.0,1.045
546.0,1.05
547.0,1.049
548.0,1.036
549.0,1.039
550.0,1.052
551.0,1.039
552.0,1.046
553.0,1.027
554.0,1.052
555.0,1.054
556.0,1.04
557.0,1.008
558.0,1.001
559.0,0.9823
560.0,0.9946
561.0,1.008
562.0,1.001
563.0,1.028
564.0,1.0
565.0,0.9919
566.0,0.9775
567.0,0.9962
568.0,0.9879
569.0,0.9655
570.0,0.9651
571.0,0.959
572.0,0.9828
573.0,0.9934
574.0,0.9904
575.0,0.9721
576.0,0.9632
577.0,0.9736
578.0,0.9587
579.0,0.962
580.0,0.9795
581.0,0.984
582.0,1.002
583.0,1.004
584.0,1.013
585.0,0.9877
586.0,0.9673
587.0,0.9889
588.0,0.9662
589.0,0.8587
590.0,0.8978
591.0,0.9484
592.0,0.9374
593.0,0.9501
594.0,0.944
595.0,0.9216
596.0,0.9558
597.0,0.9459
598.0,0.9429
599.0,0.9434
600.0,0.9442
601.0,0.9361
602.0,0.9297
603.0,0.9449
604.0,0.9604
605.0,0.9553
606.0,0.9512
607.0,0.9604
608.0,0.9495
609.0,0.951
610.0,0.9439
611.0,0.9488
612.0,0.9459
613.0,0.9338
614.0,0.9209
615.0,0.9408
616.0,0.9096
617.0,0.9077
618.0,0.9425
619.0,0.9329
620.0,0.9388
621.0,0.9399
622.0,0.9291
623.0,0.9151
624.0,0.8993
625.0,0.8972
626.0,0.9105
627.0,0.9212
628.0,0.866
629.0,0.9014
630.0,0.8808
631.0,0.8987
632.0,0.8876
633.0,0.9138
634.0,0.9043
635.0,0.9181
636.0,0.9056
637.0,0.9202
638.0,0.9286
639.0,0.918
640.0,0.9088
641.0,0.908
642.0,0.9037
643.0,0.9158
644.0,0.9126
645.0,0.9142
646.0,0.8936
647.0,0.8845
648.0,0.8855
649.0,0.8685
650.0,0.8707
651.0,0.908
652.0,0.8724
653.0,0.8959
654.0,0.8857
655.0,0.8538
656.0,0.756
657.0,0.7762
658.0,0.8693
659.0,0.8753
660.0,0.8788
661.0,0.8849
662.0,0.8871
663.0,0.8694
664.0,0.8792
665.0,0.8794
666.0,0.8799
667.0,0.8789
668.0,0.8791
669.0,0.8925
670.0,0.8886
671.0,0.8883
672.0,0.8806
673.0,0.8938
674.0,0.8903
675.0,0.8822
676.0,0.8881
677.0,0.8792
678.0,0.8817
679.0,0.8674
680.0,0.8743
681.0,0.8685
682.0,0.8674
683.0,0.8657
684.0,0.8614
685.0,0.8687
686.0,0.8636
687.0,0.5979
688.0,0.689
689.0,0.6911
690.0,0.7209
691.0,0.7543
692.0,0.7783
693.0,0.7723
694.0,0.7658
695.0,0.7946
696.0,0.7956
697.0,0.8406
698.0,0.8276
699.0,0.8103
700.0,0.8005
701.0,0.7932
702.0,0.7978
703.0,0.7992
704.0,0.8233
705.0,0.8245
706.0,0.8232
707.0,0.8236
708.0,0.8255
709.0,0.8258
710.0,0.8262
711.0,0.8247
712.0,0.8219
713.0,0.8139
714.0,0.8169
715.0,0.7921
716.0,0.7928
717.0,0.6966
718.0,0.6413
719.0,0.5883
720.0,0.617
721.0,0.6755
722.0,0.7668
723.0,0.717
724.0,0.6495
725.0,0.6404
726.0,0.6697
727.0,0.6772
728.0,0.6392
729.0,0.6599
730.0,0.6983
731.0,0.669
732.0,0.7122
733.0,0.7507
734.0,0.7676
735.0,0.7522
736.0,0.7512
737.0,0.7543
738.0,0.7637
739.0,0.7487
740.0,0.7675
741.0,0.7595
742.0,0.7598
743.0,0.7791
744.0,0.7766
745.0,0.7765
746.0,0.7801
747.0,0.7818
748.0,0.7801
749.0,0.7712
750.0,0.7707
751.0,0.7629
752.0,0.7661
753.0,0.77
754.0,0.7717
755.0,0.7674
756.0,0.767
757.0,0.7681
758.0,0.7586
759.0,0.7445
760.0,0.1471
761.0,0.08192
762.0,0.405
763.0,0.2161
764.0,0.3127
765.0,0.4051
766.0,0.4861
767.0,0.6022
768.0,0.686
769.0,0.6985
770.0,0.72
771.0,0.7248
772.0,0.726
773.0,0.731
774.0,0.7274
775.0,0.7219
776.0,0.7306
777.0,0.721
778.0,0.7166
779.0,0.7172
780.0,0.7132
781.0,0.7139
782.0,0.7183
783.0,0.7058
784.0,0.7092
785.0,0.704
786.0,0.7118
787.0,0.7003
788.0,0.692
789.0,0.6919
790.0,0.6748
791.0,0.6794
792.0,0.6742
793.0,0.6634
794.0,0.6734
795.0,0.6851
796.0,0.6659
797.0,0.6668
798.0,0.6845
799.0,0.6804
800.0,0.6691
801.0,0.6674
802.0,0.6655
803.0,0.6606
804.0,0.6613
805.0,0.6587
806.0,0.6763
807.0,0.6684
808.0,0.6689
809.0,0.657
810.0,0.6521
811.0,0.6538
812.0,0.6364
813.0,0.6239
814.0,0.5532
815.0,0.5496
816.0,0.5121
817.0,0.521
818.0,0.5025
819.0,0.558
820.0,0.527
821.0,0.6109
822.0,0.5943
823.0,0.4122
824.0,0.5788
825.0,0.6005
826.0,0.5793
827.0,0.6097
828.0,0.5215
829.0,0.5755
830.0,0.5684
831.0,0.5702
832.0,0.5536
833.0,0.5867
834.0,0.5674
835.0,0.6201
836.0,0.5956
837.0,0.6217
838.0,0.6033
839.0,0.6121
840.0,0.6253
841.0,0.6168
842.0,0.6176
843.0,0.6166
844.0,0.6084
845.0,0.6285
846.0,0.6256
847.0,0.6138
848.0,0.6102
849.0,0.5929
850.0,0.568
851.0,0.6017
852.0,0.5973
853.0,0.5747
854.0,0.4964
855.0,0.5452
856.0,0.5959
857.0,0.609
858.0,0.6046
859.0,0.605
860.0,0.606
861.0,0.6027
862.0,0.6121
863.0,0.6266
864.0,0.5953
865.0,0.59
866.0,0.5305
867.0,0.5536
868.0,0.6025
869.0,0.5899
870.0,0.6068
871.0,0.5985
872.0,0.5964
873.0,0.5952
874.0,0.5881
875.0,0.5762
876.0,0.5822
877.0,0.5881
878.0,0.5945
879.0,0.5853
880.0,0.5728
881.0,0.5643
882.0,0.5765
883.0,0.5783
884.0,0.5756
885.0,0.58
886.0,0.5532
887.0,0.5587
888.0,0.5671
889.0,0.5733
890.0,0.5688
891.0,0.5677
892.0,0.5518
893.0,0.5351
894.0,0.5175
895.0,0.4905
896.0,0.4627
897.0,0.3995
898.0,0.4348
899.0,0.3331
900.0,0.4439
901.0,0.3491
902.0,0.4065
903.0,0.4115
904.0,0.5136
905.0,0.4966
906.0,0.4652
907.0,0.381
908.0,0.3881
909.0,0.419
910.0,0.373
911.0,0.3961
912.0,0.4136
913.0,0.3787
914.0,0.375
915.0,0.4064
916.0,0.3446
917.0,0.4348
918.0,0.3535
919.0,0.442
920.0,0.4452
921.0,0.4628
922.0,0.4155
923.0,0.447
924.0,0.426
925.0,0.4167
926.0,0.4213
927.0,0.47
928.0,0.3494
929.0,0.3201
930.0,0.2534
931.0,0.2398
932.0,0.1744
933.0,0.1427
934.0,0.08015
935.0,0.1453
936.0,0.09189
937.0,0.09327
938.0,0.1143
939.0,0.2323
940.0,0.2783
941.0,0.2116
942.0,0.2441
943.0,0.1617
944.0,0.1692
945.0,0.2179
946.0,0.1125
947.0,0.2193
948.0,0.1614
949.0,0.292
950.0,0.08355
951.0,0.2873
952.0,0.1564
953.0,0.2006
954.0,0.2445
955.0,0.2028
956.0,0.196
957.0,0.1568
958.0,0.2757
959.0,0.2207
960.0,0.2473
961.0,0.2763
962.0,0.2616
963.0,0.3005
964.0,0.2756
965.0,0.2993
966.0,0.2995
967.0,0.2984
968.0,0.3963
969.0,0.4143
970.0,0.3809
971.0,0.4344
972.0,0.4158
973.0,0.3637
974.0,0.3454
975.0,0.3579
976.0,0.3408
977.0,0.386
978.0,0.3675
979.0,0.3844
980.0,0.3617
981.0,0.4318
982.0,0.4135
983.0,0.3973
984.0,0.4442
985.0,0.4119
986.0,0.4516
987.0,0.4433
988.0,0.4424
989.0,0.45
990.0,0.4398
991.0,0.4514
992.0,0.454
993.0,0.4443
994.0,0.4538
995.0,0.4532
996.0,0.4512
997.0,0.4518
998.0,0.4497
999.0,0.4481
1000.0,0.445
1001.0,0.4505
1002.0,0.4385
1003.0,0.4425
1004.0,0.4318
1005.0,0.4159
1006.0,0.4322
1007.0,0.4413
1008.0,0.439
1009.0,0.4367
1010.0,0.4349
1011.0,0.439
1012.0,0.4353
1013.0,0.438
1014.0,0.4349
1015.0,0.432
1016.0,0.4301
1017.0,0.4312
1018.0,0.4295
1019.0,0.4205
1020.0,0.4273
1021.0,0.4267
1022.0,0.4234
1023.0,0.4279
1024.0,0.4225
1025.0,0.4276
1026.0,0.4258
1027.0,0.4248
1028.0,0.4239
1029.0,0.4189
1030.0,0.4217
1031.0,0.4201
1032.0,0.4188
1033.0,0.4125
1034.0,0.4125
1035.0,0.4138
1036.0,0.416
1037.0,0.4092
1038.0,0.411
1039.0,0.4108
1040.0,0.4091
1041.0,0.4108
1042.0,0.4079
1043.0,0.4066
1044.0,0.4081
1045.0,0.4025
1046.0,0.3981
1047.0,0.4017
1048.0,0.4039
1049.0,0.4025
1050.0,0.4006
1051.0,0.4001
1052.0,0.3985
1053.0,0.3953
1054.0,0.3962
1055.0,0.3964
1056.0,0.3951
1057.0,0.3939
1058.0,0.3842
1059.0,0.3846
1060.0,0.3841
1061.0,0.3836
1062.0,0.3856
1063.0,0.3819
1064.0,0.3864
1065.0,0.3836
1066.0,0.376
1067.0,0.3809
1068.0,0.3726
1069.0,0.3611
1070.0,0.3734
1071.0,0.379
1072.0,0.3748
1073.0,0.3693
1074.0,0.3787
1075.0,0.3602
1076.0,0.3785
1077.0,0.3719
1078.0,0.365
1079.0,0.3723
1080.0,0.3662
1081.0,0.3547
1082.0,0.36
1083.0,0.361
1084.0,0.3539
1085.0,0.367
1086.0,0.3355
1087.0,0.3458
1088.0,0.3607
1089.0,0.35
1090.0,0.3426
1091.0,0.3596
1092.0,0.3586
1093.0,0.3053
1094.0,0.3283
1095.0,0.3179
1096.0,0.3047
1097.0,0.3503
1098.0,0.3001
1099.0,0.3129
1100.0,0.2913
1101.0,0.2948
1102.0,0.2819
1103.0,0.2794
1104.0,0.2798
1105.0,0.3058
1106.0,0.2359
1107.0,0.2908
1108.0,0.2477
1109.0,0.2479
1110.0,0.2884
1111.0,0.1973
1112.0,0.246
1113.0,0.1582
1114.0,0.1766
1115.0,0.1465
1116.0,0.1179
1117.0,0.04433
1118.0,0.128
1119.0,0.0643
1120.0,0.08099
1121.0,0.107
1122.0,0.04571
1123.0,0.07316
1124.0,0.06176
1125.0,0.08038
1126.0,0.02864
1127.0,0.09061
1128.0,0.05493
1129.0,0.05818
1130.0,0.03856
1131.0,0.1701
1132.0,0.1338
1133.0,0.0857
1134.0,0.02243
1135.0,0.008376
1136.0,0.07181
1137.0,0.1674
1138.0,0.1181
1139.0,0.1743
1140.0,0.1464
1141.0,0.1122
1142.0,0.1287
1143.0,0.1821
1144.0,0.06448
1145.0,0.08263
1146.0,0.08913
1147.0,0.03203
1148.0,0.1576
1149.0,0.1264
1150.0,0.06928
1151.0,0.1172
1152.0,0.1436
1153.0,0.1395
1154.0,0.0802
1155.0,0.1819
1156.0,0.1642
1157.0,0.1836
1158.0,0.1816
1159.0,0.1954
1160.0,0.1676
1161.0,0.2052
1162.0,0.2063
1163.0,0.2763
1164.0,0.2379
1165.0,0.2253
1166.0,0.2231
1167.0,0.2425
1168.0,0.2454
1169.0,0.2509
1170.0,0.2719
1171.0,0.2652
1172.0,0.2695
1173.0,0.2713
1174.0,0.196
1175.0,0.2646
1176.0,0.2897
1177.0,0.2789
1178.0,0.2113
1179.0,0.292
1180.0,0.262
1181.0,0.2702
1182.0,0.1885
1183.0,0.2658
1184.0,0.2498
1185.0,0.2416
1186.0,0.2844
1187.0,0.2716
1188.0,0.1919
1189.0,0.2531
1190.0,0.2779
1191.0,0.2651
1192.0,0.2817
1193.0,0.2704
1194.0,0.2784
1195.0,0.2641
1196.0,0.2549
1197.0,0.2781
1198.0,0.255
1199.0,0.2188
1200.0,0.267
1201.0,0.2582
1202.0,0.2563
1203.0,0.2542
1204.0,0.2233
1205.0,0.2617
1206.0,0.288
1207.0,0.2558
1208.0,0.2512
1209.0,0.2562
1210.0,0.2665
1211.0,0.2546
1212.0,0.2524
1213.0,0.279
1214.0,0.258
1215.0,0.2533
1216.0,0.278
1217.0,0.2711
1218.0,0.2758
1219.0,0.2726
1220.0,0.276
1221.0,0.2786
1222.0,0.2716
1223.0,0.2692
1224.0,0.2678
1225.0,0.2768
1226.0,0.2784
1227.0,0.2579
1228.0,0.2796
1229.0,0.2785
1230.0,0.2739
1231.0,0.281
1232.0,0.2794
1233.0,0.2706
1234.0,0.2806
1235.0,0.2789
1236.0,0.2809
1237.0,0.2773
1238.0,0.2799
1239.0,0.2763
1240.0,0.2774
1241.0,0.2762
1242.0,0.2755
1243.0,0.2732
1244.0,0.2752
1245.0,0.2764
1246.0,0.2747
1247.0,0.2737
1248.0,0.2737
1249.0,0.2744
1250.0,0.2728
1251.0,0.2694
1252.0,0.2693
1253.0,0.2674
1254.0,0.265
1255.0,0.2691
1256.0,0.2621
1257.0,0.2608
1258.0,0.2652
1259.0,0.2564
1260.0,0.2577
1261.0,0.2442
1262.0,0.2375
1263.0,0.2379
1264.0,0.2209
1265.0,0.2364
1266.0,0.2282
1267.0,0.2317
1268.0,0.2205
1269.0,0.1422
1270.0,0.2311
1271.0,0.2433
1272.0,0.244
1273.0,0.2415
1274.0,0.2421
1275.0,0.2454
1276.0,0.2476
1277.0,0.249
1278.0,0.2534
1279.0,0.2511
1280.0,0.2479
1281.0,0.2364
1282.0,0.2274
1283.0,0.245
1284.0,0.2509
1285.0,0.2526
1286.0,0.2558
1287.0,0.2522
1288.0,0.252
1289.0,0.2447
1290.0,0.2497
1291.0,0.2531
1292.0,0.239
1293.0,0.2485
1294.0,0.2468
1295.0,0.2459
1296.0,0.2356
1297.0,0.2234
1298.0,0.2393
1299.0,0.2487
1300.0,0.2126
1301.0,0.2187
1302.0,0.2385
1303.0,0.2095
1304.0,0.1806
1305.0,0.2337
1306.0,0.2338
1307.0,0.1838
1308.0,0.2096
1309.0,0.2322
1310.0,0.1804
1311.0,0.2013
1312.0,0.1962
1313.0,0.1927
1314.0,0.1731
1315.0,0.1713
1316.0,0.1985
1317.0,0.1882
1318.0,0.2038
1319.0,0.1614
1320.0,0.156
1321.0,0.1809
1322.0,0.1831
1323.0,0.1395
1324.0,0.1583
1325.0,0.1957
1326.0,0.1691
1327.0,0.1616
1328.0,0.1398
1329.0,0.1064
1330.0,0.1378
1331.0,0.08477
1332.0,0.08701
1333.0,0.1207
1334.0,0.1015
1335.0,0.1389
1336.0,0.1107
1337.0,0.0983
1338.0,0.1064
1339.0,0.1057
1340.0,0.1024
1341.0,0.1009
1342.0,0.1059
1343.0,0.07356
1344.0,0.04395
1345.0,0.06326
1346.0,0.0326
1347.0,0.03334
1348.0,0.002378
1349.0,0.008316
1350.0,0.008473
1351.0,0.002243
1352.0,0.0006651
1353.0,3.767e-05
1354.0,0.0001214
1355.0,1.213e-06
1356.0,1.855e-05
1357.0,2.819e-05
1358.0,1.425e-06
1359.0,2.11e-07
1360.0,6.905e-07
1361.0,1.087e-09
1362.0,3.456e-12
1363.0,9.799e-07
1364.0,4.103e-07
1365.0,1.462e-12
1366.0,4.105e-06
1367.0,1.638e-06
1368.0,1.635e-14
1369.0,1.549e-07
1370.0,8.177e-08
1371.0,5.057e-09
1372.0,9.015e-07
1373.0,1.633e-05
1374.0,7.052e-05
1375.0,0.0001285
1376.0,0.0001089
1377.0,5.072e-05
1378.0,0.0004803
1379.0,2.139e-05
1380.0,3.222e-05
1381.0,8.822e-07
1382.0,8.289e-07
1383.0,1.324e-08
1384.0,1.8e-07
1385.0,7.273e-07
1386.0,7.742e-07
1387.0,7.645e-05
1388.0,1.518e-06
1389.0,0.0002394
1390.0,0.0002062
1391.0,0.0001399
1392.0,9.342e-06
1393.0,4.763e-05
1394.0,2.77e-05
1395.0,2.225e-07
1396.0,1.497e-09
1397.0,1.955e-05
1398.0,0.0005437
1399.0,0.0003444
1400.0,7.074e-10
1401.0,2.608e-09
1402.0,0.0008703
1403.0,0.001114
1404.0,0.0003422
1405.0,1.149e-07
1406.0,0.0009178
1407.0,7.95e-05
1408.0,0.000747
1409.0,0.0002644
1410.0,0.0002049
1411.0,0.0009761
1412.0,0.001285
1413.0,0.01235
1414.0,0.0001607
1415.0,7.908e-05
1416.0,0.01961
1417.0,0.006123
1418.0,0.007001
1419.0,0.001095
1420.0,0.00429
1421.0,0.004642
1422.0,0.02556
1423.0,0.004998
1424.0,0.009326
1425.0,0.01379
1426.0,0.0155
1427.0,0.02815
1428.0,0.00225
1429.0,0.0212
1430.0,0.03578
1431.0,0.03922
1432.0,0.001776
1433.0,0.02505
1434.0,0.01279
1435.0,0.01296
1436.0,0.02475
1437.0,0.01896
1438.0,0.008078
1439.0,0.03355
1440.0,0.02514
1441.0,0.01927
1442.0,0.02136
1443.0,0.02666
1444.0,0.03688
1445.0,0.02896
1446.0,0.01306
1447.0,0.02057
