interpolation:linear
wavelength,value
280.0,6.799e-22
280.5,2.2060000000000003e-20
281.0,1.177e-19
281.5,5.103e-19
282.0,8.518e-19
282.5,2.107e-18
283.0,6.635e-18
283.5,1.078e-17
284.0,1.753e-16
284.5,5.083e-16
285.0,9.279e-16
285.5,4.536e-15
286.0,1.818e-14
286.5,8.102e-14
287.0,2.309e-13
287.5,8.833e-13
288.0,2.856e-12
288.5,8.784e-12
289.0,2.362e-11
289.5,7.178e-11
290.0,1.999e-10
290.5,4.082e-10
291.0,8.774e-10
291.5,2.52e-09
292.0,5.861e-09
292.5,8.181e-09
293.0,1.744e-08
293.5,4.211e-08
294.0,6.556e-08
294.5,8.689e-08
295.0,1.466e-07
295.5,2.894e-07
296.0,5.467e-07
296.5,7.843e-07
297.0,1.087e-06
297.5,3.044e-06
298.0,5.011e-06
298.5,5.239e-06
299.0,1.205e-05
299.5,2.179e-05
300.0,2.531e-05
300.5,3.899e-05
301.0,7.895e-05
301.5,0.0001416
302.0,0.0001298
302.5,0.0002617
303.0,0.0004914
303.5,0.0006392
304.0,0.000617
304.5,0.0009882
305.0,0.001655
305.5,0.002019
306.0,0.002003
306.5,0.002599
307.0,0.00422
307.5,0.006123
308.0,0.006561
308.5,0.008092
309.0,0.008225
309.5,0.009956
310.0,0.01026
310.5,0.01684
311.0,0.02159
311.5,0.02104
312.0,0.02201
312.5,0.0276
313.0,0.03041
313.5,0.02911
314.0,0.03772
314.5,0.03506
315.0,0.04647
315.5,0.03801
316.0,0.03448
316.5,0.05116
317.0,0.06348
317.5,0.06548
318.0,0.05223
318.5,0.06763
319.0,0.08198
319.5,0.06463
320.0,0.07771
320.5,0.1015
321.0,0.09388
321.5,0.09038
322.0,0.09251
322.5,0.08067
323.0,0.08251
323.5,0.1038
324.0,0.1217
324.5,0.1223
325.0,0.1044
325.5,0.1372
326.0,0.1686
326.5,0.1712
327.0,0.1698
327.5,0.163
328.0,0.1427
328.5,0.1532
329.0,0.1867
329.5,0.2131
330.0,0.2141
330.5,0.1692
331.0,0.1717
331.5,0.1763
332.0,0.1932
332.5,0.1924
333.0,0.1912
333.5,0.1713
334.0,0.1753
334.5,0.2047
335.0,0.1938
335.5,0.2266
336.0,0.1569
336.5,0.183
337.0,0.1494
337.5,0.1856
338.0,0.1831
338.5,0.2118
339.0,0.2098
339.5,0.2019
340.0,0.2369
340.5,0.2139
341.0,0.2088
341.5,0.192
342.0,0.2297
342.5,0.215
343.0,0.2364
343.5,0.2226
344.0,0.1644
344.5,0.1662
345.0,0.2203
345.5,0.2252
346.0,0.1916
346.5,0.2171
347.0,0.233
347.5,0.1885
348.0,0.2151
348.5,0.2152
349.0,0.1998
349.5,0.1979
350.0,0.245
350.5,0.2585
351.0,0.2309
351.5,0.2243
352.0,0.2412
352.5,0.1884
353.0,0.2376
353.5,0.2542
354.0,0.264
354.5,0.2679
355.0,0.267
355.5,0.2414
356.0,0.2528
356.5,0.2159
357.0,0.1784
357.5,0.2185
358.0,0.1733
358.5,0.1481
359.0,0.2073
359.5,0.2641
360.0,0.2801
360.5,0.224
361.0,0.2044
361.5,0.2356
362.0,0.2039
362.5,0.2825
363.0,0.2539
363.5,0.234
364.0,0.2864
364.5,0.245
365.0,0.2496
365.5,0.3134
366.0,0.3323
366.5,0.3125
367.0,0.3045
367.5,0.3161
368.0,0.2768
368.5,0.2795
369.0,0.302
369.5,0.3221
370.0,0.3435
370.5,0.2668
371.0,0.2852
371.5,0.357
372.0,0.2371
372.5,0.2844
373.0,0.2895
373.5,0.1885
374.0,0.274
374.5,0.2271
375.0,0.2208
375.5,0.3298
376.0,0.2735
376.5,0.2836
377.0,0.3004
377.5,0.3517
378.0,0.3814
378.5,0.3606
379.0,0.2977
379.5,0.272
380.0,0.2829
380.5,0.3429
381.0,0.3438
381.5,0.2728
382.0,0.2424
382.5,0.2068
383.0,0.1916
383.5,0.1847
384.0,0.2038
384.5,0.3
385.0,0.2976
385.5,0.2774
386.0,0.2377
386.5,0.3125
387.0,0.2597
387.5,0.2919
388.0,0.2696
388.5,0.2667
389.0,0.288
389.5,0.349
390.0,0.3505
390.5,0.3227
391.0,0.3801
391.5,0.3878
392.0,0.3268
392.5,0.2928
393.0,0.163
393.5,0.1186
394.0,0.2414
394.5,0.3071
395.0,0.3749
395.5,0.3809
396.0,0.3304
396.5,0.1933
397.0,0.1452
397.5,0.2953
398.0,0.4137
398.5,0.4278
399.0,0.4636
399.5,0.4623
400.0,0.4801
401.0,0.4854
402.0,0.5128
403.0,0.4877
404.0,0.4805
405.0,0.4809
406.0,0.4736
407.0,0.4665
408.0,0.4849
409.0,0.5194
410.0,0.4543
411.0,0.4926
412.0,0.5297
413.0,0.5168
414.0,0.5236
415.0,0.5256
416.0,0.5353
417.0,0.5225
418.0,0.5132
419.0,0.5204
420.0,0.5184
421.0,0.5428
422.0,0.5163
423.0,0.5047
424.0,0.534
425.0,0.5335
426.0,0.5203
427.0,0.5109
428.0,0.4979
429.0,0.4722
430.0,0.4136
431.0,0.41
432.0,0.5299
433.0,0.5332
434.0,0.4953
435.0,0.5174
436.0,0.5836
437.0,0.5764
438.0,0.5252
439.0,0.5429
440.0,0.5607
441.0,0.5815
442.0,0.6239
443.0,0.6076
444.0,0.6213
445.0,0.6079
446.0,0.5809
447.0,0.6287
448.0,0.6383
449.0,0.6416
450.0,0.66
451.0,0.6848
452.0,0.6601
453.0,0.6212
454.0,0.649
455.0,0.6532
456.0,0.669
457.0,0.6803
458.0,0.6568
459.0,0.6537
460.0,0.6554
461.0,0.6707
462.0,0.6763
463.0,0.6717
464.0,0.6614
465.0,0.6537
466.0,0.6605
467.0,0.6483
468.0,0.6561
469.0,0.6596
470.0,0.6385
471.0,0.6379
472.0,0.6722
473.0,0.6635
474.0,0.6641
475.0,0.6694
476.0,0.6488
477.0,0.6502
478.0,0.6685
479.0,0.6648
480.0,0.6665
481.0,0.6795
482.0,0.6836
483.0,0.6761
484.0,0.6626
485.0,0.6317
486.0,0.5527
487.0,0.5796
488.0,0.6359
489.0,0.6377
490.0,0.6712
491.0,0.66
492.0,0.6233
493.0,0.6438
494.0,0.6504
495.0,0.656
496.0,0.6601
497.0,0.6703
498.0,0.6389
499.0,0.6469
500.0,0.6277
501.0,0.6158
502.0,0.6064
503.0,0.6303
504.0,0.612
505.0,0.6358
506.0,0.6563
507.0,0.6247
508.0,0.6059
509.0,0.6235
510.0,0.6207
511.0,0.6378
512.0,0.645
513.0,0.6106
514.0,0.6066
515.0,0.6006
516.0,0.5991
517.0,0.5324
518.0,0.5597
519.0,0.587
520.0,0.6083
521.0,0.614
522.0,0.6144
523.0,0.6032
524.0,0.6244
525.0,0.6311
526.0,0.6027
527.0,0.5675
528.0,0.5998
529.0,0.6319
530.0,0.6226
531.0,0.6316
532.0,0.6098
533.0,0.592
534.0,0.6097
535.0,0.6233
536.0,0.6293
537.0,0.6047
538.0,0.6155
539.0,0.6103
540.0,0.585
541.0,0.5882
542.0,0.6063
543.0,0.6004
544.0,0.6103
545.0,0.6085
546.0,0.6107
547.0,0.6109
548.0,0.6038
549.0,0.6058
550.0,0.6131
551.0,0.6057
552.0,0.6099
553.0,0.5989
554.0,0.6132
555.0,0.6143
556.0,0.6062
557.0,0.5871
558.0,0.5824
559.0,0.5711
560.0,0.578
561.0,0.5851
562.0,0.5805
563.0,0.5958
564.0,0.5792
565.0,0.5739
566.0,0.5651
567.0,0.5753
568.0,0.569
569.0,0.5532
570.0,0.5533
571.0,0.5506
572.0,0.5622
573.0,0.568
574.0,0.5658
575.0,0.5547
576.0,0.5497
577.0,0.5559
578.0,0.5482
579.0,0.5515
580.0,0.5637
581.0,0.5679
582.0,0.5798
583.0,0.5821
584.0,0.5878
585.0,0.5738
586.0,0.5621
587.0,0.5737
588.0,0.5568
589.0,0.4876
590.0,0.5104
591.0,0.5435
592.0,0.5347
593.0,0.5452
594.0,0.5403
595.0,0.5249
596.0,0.5502
597.0,0.5431
598.0,0.5431
599.0,0.5442
600.0,0.5462
601.0,0.5426
602.0,0.5391
603.0,0.5484
604.0,0.5577
605.0,0.5551
606.0,0.5534
607.0,0.5594
608.0,0.5537
609.0,0.5551
610.0,0.5517
611.0,0.5548
612.0,0.5535
613.0,0.5468
614.0,0.5398
615.0,0.552
616.0,0.5341
617.0,0.5333
618.0,0.5541
619.0,0.5486
620.0,0.5521
621.0,0.5522
622.0,0.5454
623.0,0.5367
624.0,0.5279
625.0,0.5267
626.0,0.5344
627.0,0.5393
628.0,0.4908
629.0,0.5221
630.0,0.5096
631.0,0.5255
632.0,0.52
633.0,0.5377
634.0,0.5339
635.0,0.5429
636.0,0.5366
637.0,0.546
638.0,0.5522
639.0,0.5466
640.0,0.5419
641.0,0.542
642.0,0.5401
643.0,0.5474
644.0,0.5462
645.0,0.5468
646.0,0.5325
647.0,0.5226
648.0,0.523
649.0,0.5125
650.0,0.5196
651.0,0.543
652.0,0.5156
653.0,0.536
654.0,0.5304
655.0,0.5083
656.0,0.4522
657.0,0.4646
658.0,0.5221
659.0,0.5265
660.0,0.529
661.0,0.5328
662.0,0.533
663.0,0.5228
664.0,0.5304
665.0,0.5318
666.0,0.5326
667.0,0.5326
668.0,0.5334
669.0,0.542
670.0,0.5399
671.0,0.54
672.0,0.5355
673.0,0.5438
674.0,0.542
675.0,0.5373
676.0,0.5412
677.0,0.536
678.0,0.5377
679.0,0.5292
680.0,0.5335
681.0,0.5301
682.0,0.5294
683.0,0.5285
684.0,0.5258
685.0,0.5305
686.0,0.5271
687.0,0.2957
688.0,0.3709
689.0,0.373
690.0,0.3999
691.0,0.431
692.0,0.455
693.0,0.4506
694.0,0.4476
695.0,0.473
696.0,0.4739
697.0,0.511
698.0,0.5029
699.0,0.4854
700.0,0.4793
701.0,0.4724
702.0,0.4778
703.0,0.4791
704.0,0.4977
705.0,0.4984
706.0,0.4993
707.0,0.5002
708.0,0.5011
709.0,0.504
710.0,0.5029
711.0,0.5029
712.0,0.5025
713.0,0.4964
714.0,0.4986
715.0,0.4806
716.0,0.4804
717.0,0.3967
718.0,0.3622
719.0,0.3302
720.0,0.344
721.0,0.3913
722.0,0.4602
723.0,0.4221
724.0,0.3727
725.0,0.3642
726.0,0.382
727.0,0.3925
728.0,0.3623
729.0,0.3829
730.0,0.4041
731.0,0.3851
732.0,0.4192
733.0,0.4507
734.0,0.4635
735.0,0.4528
736.0,0.452
737.0,0.4538
738.0,0.466
739.0,0.4568
740.0,0.4703
741.0,0.4665
742.0,0.4679
743.0,0.4801
744.0,0.4794
745.0,0.48
746.0,0.4821
747.0,0.4833
748.0,0.4824
749.0,0.4769
750.0,0.4767
751.0,0.4719
752.0,0.474
753.0,0.4765
754.0,0.4775
755.0,0.4748
756.0,0.4747
757.0,0.4753
758.0,0.4693
759.0,0.4565
760.0,0.03651
761.0,0.01484
762.0,0.1783
763.0,0.06632
764.0,0.1182
765.0,0.1781
766.0,0.2424
767.0,0.3325
768.0,0.4069
769.0,0.4208
770.0,0.4414
771.0,0.4477
772.0,0.4495
773.0,0.4529
774.0,0.4509
775.0,0.4476
776.0,0.4531
777.0,0.4472
778.0,0.4444
779.0,0.4448
780.0,0.4424
781.0,0.4429
782.0,0.4457
783.0,0.438
784.0,0.4402
785.0,0.4367
786.0,0.4413
787.0,0.4311
788.0,0.4246
789.0,0.4243
790.0,0.4095
791.0,0.4165
792.0,0.4139
793.0,0.4069
794.0,0.4174
795.0,0.4235
796.0,0.4057
797.0,0.4058
798.0,0.4224
799.0,0.4188
800.0,0.4104
801.0,0.408
802.0,0.4068
803.0,0.4031
804.0,0.4042
805.0,0.4044
806.0,0.4181
807.0,0.4125
808.0,0.4131
809.0,0.4035
810.0,0.3991
811.0,0.397
812.0,0.3824
813.0,0.3729
814.0,0.3185
815.0,0.3171
816.0,0.294
817.0,0.3001
818.0,0.2867
819.0,0.3287
820.0,0.3066
821.0,0.3703
822.0,0.3578
823.0,0.2252
824.0,0.3429
825.0,0.3638
826.0,0.3461
827.0,0.3692
828.0,0.3018
829.0,0.3448
830.0,0.3393
831.0,0.3407
832.0,0.3282
833.0,0.3545
834.0,0.3383
835.0,0.3799
836.0,0.3582
837.0,0.3812
838.0,0.3666
839.0,0.376
840.0,0.3849
841.0,0.3783
842.0,0.3809
843.0,0.3826
844.0,0.3763
845.0,0.3904
846.0,0.389
847.0,0.3823
848.0,0.3791
849.0,0.3683
850.0,0.353
851.0,0.3728
852.0,0.3706
853.0,0.3574
854.0,0.308
855.0,0.3393
856.0,0.3704
857.0,0.3792
858.0,0.3762
859.0,0.3769
860.0,0.3778
861.0,0.3757
862.0,0.3817
863.0,0.3907
864.0,0.3712
865.0,0.3681
866.0,0.331
867.0,0.3454
868.0,0.3759
869.0,0.3681
870.0,0.3787
871.0,0.3735
872.0,0.3722
873.0,0.3715
874.0,0.3671
875.0,0.3596
876.0,0.3633
877.0,0.367
878.0,0.3709
879.0,0.3652
880.0,0.3574
881.0,0.3516
882.0,0.359
883.0,0.3606
884.0,0.3588
885.0,0.3615
886.0,0.3429
887.0,0.3478
888.0,0.3522
889.0,0.3576
890.0,0.3529
891.0,0.3532
892.0,0.3408
893.0,0.328
894.0,0.3118
895.0,0.2889
896.0,0.2705
897.0,0.2255
898.0,0.2495
899.0,0.1821
900.0,0.2599
901.0,0.1908
902.0,0.2344
903.0,0.233
904.0,0.3094
905.0,0.2966
906.0,0.2757
907.0,0.2131
908.0,0.2193
909.0,0.2421
910.0,0.2055
911.0,0.2251
912.0,0.2363
913.0,0.2082
914.0,0.2081
915.0,0.2252
916.0,0.1892
917.0,0.2486
918.0,0.1934
919.0,0.256
920.0,0.2644
921.0,0.275
922.0,0.2395
923.0,0.2662
924.0,0.2441
925.0,0.2391
926.0,0.2409
927.0,0.2759
928.0,0.1847
929.0,0.1639
930.0,0.1215
931.0,0.1156
932.0,0.07585
933.0,0.05834
934.0,0.02537
935.0,0.06235
936.0,0.03453
937.0,0.03472
938.0,0.04429
939.0,0.1118
940.0,0.14
941.0,0.09863
942.0,0.118
943.0,0.0723
944.0,0.08143
945.0,0.1032
946.0,0.04546
947.0,0.1017
948.0,0.07398
949.0,0.1432
950.0,0.03001
951.0,0.1421
952.0,0.06739
953.0,0.09297
954.0,0.1208
955.0,0.09474
956.0,0.09784
957.0,0.06688
958.0,0.1468
959.0,0.1084
960.0,0.1215
961.0,0.1429
962.0,0.1347
963.0,0.161
964.0,0.1458
965.0,0.1605
966.0,0.1596
967.0,0.1581
968.0,0.234
969.0,0.2415
970.0,0.2195
971.0,0.2609
972.0,0.2476
973.0,0.2058
974.0,0.1943
975.0,0.2052
976.0,0.1894
977.0,0.2266
978.0,0.2106
979.0,0.2234
980.0,0.2085
981.0,0.2597
982.0,0.2447
983.0,0.2329
984.0,0.272
985.0,0.2437
986.0,0.2795
987.0,0.2708
988.0,0.2706
989.0,0.2804
990.0,0.2688
991.0,0.2809
992.0,0.2828
993.0,0.2734
994.0,0.2831
995.0,0.2832
996.0,0.2814
997.0,0.2821
998.0,0.2806
999.0,0.2797
1000.0,0.277
1001.0,0.2813
1002.0,0.2705
1003.0,0.2761
1004.0,0.2686
1005.0,0.2598
1006.0,0.2694
1007.0,0.2754
1008.0,0.2734
1009.0,0.2713
1010.0,0.2699
1011.0,0.2741
1012.0,0.2711
1013.0,0.2736
1014.0,0.2717
1015.0,0.2698
1016.0,0.2685
1017.0,0.2691
1018.0,0.2684
1019.0,0.2616
1020.0,0.2668
1021.0,0.2667
1022.0,0.2642
1023.0,0.2669
1024.0,0.2623
1025.0,0.2671
1026.0,0.2657
1027.0,0.2651
1028.0,0.2645
1029.0,0.2612
1030.0,0.2635
1031.0,0.2622
1032.0,0.2616
1033.0,0.2576
1034.0,0.2577
1035.0,0.2585
1036.0,0.2597
1037.0,0.2555
1038.0,0.2566
1039.0,0.2564
1040.0,0.2553
1041.0,0.2562
1042.0,0.2544
1043.0,0.2536
1044.0,0.2544
1045.0,0.2509
1046.0,0.248
1047.0,0.2502
1048.0,0.2514
1049.0,0.2505
1050.0,0.2492
1051.0,0.2487
1052.0,0.2476
1053.0,0.2455
1054.0,0.2459
1055.0,0.2458
1056.0,0.2448
1057.0,0.2438
1058.0,0.2377
1059.0,0.2377
1060.0,0.2373
1061.0,0.2369
1062.0,0.2379
1063.0,0.2355
1064.0,0.2383
1065.0,0.2361
1066.0,0.2318
1067.0,0.2347
1068.0,0.2293
1069.0,0.2224
1070.0,0.2297
1071.0,0.2343
1072.0,0.2308
1073.0,0.2276
1074.0,0.2347
1075.0,0.2198
1076.0,0.2343
1077.0,0.2284
1078.0,0.2233
1079.0,0.2311
1080.0,0.225
1081.0,0.2162
1082.0,0.2223
1083.0,0.2237
1084.0,0.215
1085.0,0.2257
1086.0,0.2018
1087.0,0.2111
1088.0,0.2229
1089.0,0.2131
1090.0,0.2068
1091.0,0.2214
1092.0,0.2214
1093.0,0.1797
1094.0,0.2016
1095.0,0.1879
1096.0,0.1777
1097.0,0.2164
1098.0,0.1737
1099.0,0.1825
1100.0,0.1665
1101.0,0.1696
1102.0,0.1598
1103.0,0.1567
1104.0,0.1571
1105.0,0.1776
1106.0,0.1231
1107.0,0.1663
1108.0,0.1334
1109.0,0.135
1110.0,0.1634
1111.0,0.1009
1112.0,0.1345
1113.0,0.07587
1114.0,0.0854
1115.0,0.07017
1116.0,0.05074
1117.0,0.01383
1118.0,0.05664
1119.0,0.0238
1120.0,0.02941
1121.0,0.04137
1122.0,0.014
1123.0,0.02677
1124.0,0.02253
1125.0,0.03046
1126.0,0.007417
1127.0,0.03468
1128.0,0.01707
1129.0,0.0185
1130.0,0.0113
1131.0,0.07571
1132.0,0.05744
1133.0,0.03106
1134.0,0.005606
1135.0,0.002255
1136.0,0.02412
1137.0,0.07231
1138.0,0.04999
1139.0,0.08615
1140.0,0.06751
1141.0,0.04764
1142.0,0.05694
1143.0,0.08587
1144.0,0.02488
1145.0,0.02998
1146.0,0.03227
1147.0,0.008201
1148.0,0.07378
1149.0,0.05564
1150.0,0.02768
1151.0,0.04958
1152.0,0.06495
1153.0,0.06641
1154.0,0.0291
1155.0,0.08969
1156.0,0.0784
1157.0,0.0925
1158.0,0.09134
1159.0,0.1012
1160.0,0.08405
1161.0,0.1101
1162.0,0.11
1163.0,0.1603
1164.0,0.1333
1165.0,0.1216
1166.0,0.1241
1167.0,0.1372
1168.0,0.1377
1169.0,0.1422
1170.0,0.1582
1171.0,0.154
1172.0,0.1591
1173.0,0.1579
1174.0,0.1045
1175.0,0.1562
1176.0,0.1765
1177.0,0.1662
1178.0,0.1186
1179.0,0.178
1180.0,0.1538
1181.0,0.1589
1182.0,0.1027
1183.0,0.1576
1184.0,0.1453
1185.0,0.138
1186.0,0.1709
1187.0,0.1604
1188.0,0.1033
1189.0,0.1491
1190.0,0.1674
1191.0,0.1545
1192.0,0.1701
1193.0,0.1616
1194.0,0.1675
1195.0,0.1554
1196.0,0.148
1197.0,0.1689
1198.0,0.153
1199.0,0.1239
1200.0,0.1594
1201.0,0.1515
1202.0,0.1524
1203.0,0.1501
1204.0,0.1285
1205.0,0.1577
1206.0,0.1773
1207.0,0.1511
1208.0,0.1506
1209.0,0.1541
1210.0,0.162
1211.0,0.152
1212.0,0.1469
1213.0,0.1699
1214.0,0.1517
1215.0,0.1484
1216.0,0.1697
1217.0,0.164
1218.0,0.1682
1219.0,0.1654
1220.0,0.1685
1221.0,0.1708
1222.0,0.1659
1223.0,0.1638
1224.0,0.1616
1225.0,0.1696
1226.0,0.1716
1227.0,0.1551
1228.0,0.1732
1229.0,0.1716
1230.0,0.1681
1231.0,0.175
1232.0,0.1739
1233.0,0.1651
1234.0,0.1755
1235.0,0.1739
1236.0,0.1755
1237.0,0.1719
1238.0,0.175
1239.0,0.1727
1240.0,0.1735
1241.0,0.172
1242.0,0.1722
1243.0,0.1709
1244.0,0.1718
1245.0,0.1727
1246.0,0.1717
1247.0,0.1709
1248.0,0.1704
1249.0,0.1712
1250.0,0.17
1251.0,0.1674
1252.0,0.168
1253.0,0.1656
1254.0,0.1632
1255.0,0.1675
1256.0,0.161
1257.0,0.1598
1258.0,0.1642
1259.0,0.1554
1260.0,0.1566
1261.0,0.1443
1262.0,0.1382
1263.0,0.1384
1264.0,0.1237
1265.0,0.1376
1266.0,0.1299
1267.0,0.1339
1268.0,0.1243
1269.0,0.06168
1270.0,0.1328
1271.0,0.1443
1272.0,0.1452
1273.0,0.1432
1274.0,0.1442
1275.0,0.1469
1276.0,0.149
1277.0,0.1509
1278.0,0.1552
1279.0,0.1537
1280.0,0.1518
1281.0,0.1455
1282.0,0.1413
1283.0,0.152
1284.0,0.1554
1285.0,0.1566
1286.0,0.1593
1287.0,0.1557
1288.0,0.156
1289.0,0.1489
1290.0,0.1548
1291.0,0.1573
1292.0,0.1439
1293.0,0.1534
1294.0,0.1521
1295.0,0.1501
1296.0,0.1409
1297.0,0.1315
1298.0,0.1454
1299.0,0.1539
1300.0,0.124
1301.0,0.1289
1302.0,0.145
1303.0,0.123
1304.0,0.09916
1305.0,0.1417
1306.0,0.1411
1307.0,0.1034
1308.0,0.1242
1309.0,0.1392
1310.0,0.101
1311.0,0.1177
1312.0,0.1137
1313.0,0.1102
1314.0,0.09662
1315.0,0.09404
1316.0,0.1148
1317.0,0.108
1318.0,0.1198
1319.0,0.08675
1320.0,0.08548
1321.0,0.1019
1322.0,0.1017
1323.0,0.071
1324.0,0.08534
1325.0,0.1125
1326.0,0.09308
1327.0,0.0878
1328.0,0.07382
1329.0,0.05066
1330.0,0.06841
1331.0,0.03612
1332.0,0.03887
1333.0,0.05511
1334.0,0.04989
1335.0,0.07038
1336.0,0.05271
1337.0,0.04562
1338.0,0.04911
1339.0,0.04963
1340.0,0.04979
1341.0,0.04504
1342.0,0.04772
1343.0,0.02638
1344.0,0.01635
1345.0,0.02336
1346.0,0.008555
1347.0,0.008191
1348.0,0.0002765
1349.0,0.001169
1350.0,0.001363
1351.0,0.0001811
1352.0,2.286e-05
1353.0,6.356e-07
1354.0,3.488e-06
1355.0,7.232e-09
1356.0,3.037e-07
1357.0,4.624e-07
1358.0,9.006e-09
1359.0,4.753e-10
1360.0,2.926e-09
1361.0,1.03e-12
1362.0,2.482e-15
1363.0,2.7e-09
1364.0,1.193e-09
1365.0,8.047e-16
1366.0,1.452e-08
1367.0,7.861e-09
1368.0,6.081e-18
1369.0,4.389e-10
1370.0,1.581e-10
1371.0,6.99e-12
1372.0,4.448e-09
1373.0,1.681e-07
1374.0,1.274e-06
1375.0,2.06e-06
1376.0,3.243e-06
1377.0,1.354e-06
1378.0,1.485e-05
1379.0,5.781e-07
1380.0,5.76e-07
1381.0,1.239e-08
1382.0,3.531e-09
1383.0,4.222e-11
1384.0,4.207e-10
1385.0,5.592e-09
1386.0,2.356e-09
1387.0,8.768e-07
1388.0,2.156e-08
1389.0,5.592e-06
1390.0,4.557e-06
1391.0,2.895e-06
1392.0,1.775e-07
1393.0,1.201e-06
1394.0,2.513e-07
1395.0,1.256e-09
1396.0,1.5e-12
1397.0,3.949e-07
1398.0,1.529e-05
1399.0,1.011e-05
1400.0,5.495e-13
1401.0,2.883e-12
1402.0,6.44e-05
1403.0,6.814e-05
1404.0,1.908e-05
1405.0,4.29e-10
1406.0,3.71e-05
1407.0,4.641e-06
1408.0,3.222e-05
1409.0,6.977e-06
1410.0,8.266e-06
1411.0,6.219e-05
1412.0,0.0001039
1413.0,0.001826
1414.0,6.989e-06
1415.0,2.785e-06
1416.0,0.004541
1417.0,0.0009718
1418.0,0.0009523
1419.0,0.0001364
1420.0,0.0005745
1421.0,0.0006866
1422.0,0.005958
1423.0,0.001072
1424.0,0.002168
1425.0,0.002876
1426.0,0.003912
1427.0,0.00853
1428.0,0.0002415
1429.0,0.005586
1430.0,0.01169
1431.0,0.01339
1432.0,0.0001857
1433.0,0.007813
