interpolation:linear
wavelength,value
280.0,8.4319999999999995e-22
280.5,2.724e-20
281.0,1.451e-19
281.5,5.254e-19
282.0,9.007e-19
282.5,2.231e-18
283.0,7.023e-18
283.5,1.141e-17
284.0,1.85e-16
284.5,5.357e-16
285.0,1.014e-15
285.5,4.921e-15
286.0,1.97e-14
286.5,8.747e-14
287.0,2.488e-13
287.5,9.494e-13
288.0,3.005e-12
288.5,9.305e-12
289.0,2.513e-11
289.5,7.659e-11
290.0,2.136e-10
290.5,4.368e-10
291.0,9.398e-10
291.5,2.701e-09
292.0,5.861e-09
292.5,8.32e-09
293.0,1.809e-08
293.5,4.476e-08
294.0,7.076e-08
294.5,9.357e-08
295.0,1.599e-07
295.5,3.414e-07
296.0,6.26e-07
296.5,9.013e-07
297.0,1.253e-06
297.5,3.531e-06
298.0,5.848e-06
298.5,6.145e-06
299.0,1.421e-05
299.5,2.596e-05
300.0,3.034e-05
300.5,4.706e-05
301.0,9.653e-05
301.5,0.0001759
302.0,0.0001628
302.5,0.0003277
303.0,0.0006136
303.5,0.0007958
304.0,0.000766
304.5,0.001217
305.0,0.002014
305.5,0.002437
306.0,0.002411
306.5,0.003111
307.0,0.004992
307.5,0.007156
308.0,0.007653
308.5,0.009381
309.0,0.009478
309.5,0.01137
310.0,0.01167
310.5,0.01912
311.0,0.02442
311.5,0.02377
312.0,0.02469
312.5,0.03081
313.0,0.03386
313.5,0.03249
314.0,0.04187
314.5,0.03862
315.0,0.05112
315.5,0.04197
316.0,0.03784
316.5,0.05585
317.0,0.06932
317.5,0.0716
318.0,0.05691
318.5,0.0732
319.0,0.08842
319.5,0.07009
320.0,0.08435
320.5,0.1094
321.0,0.1006
321.5,0.09675
322.0,0.09971
322.5,0.08691
323.0,0.08851
323.5,0.1109
324.0,0.13
324.5,0.1308
325.0,0.1119
325.5,0.1465
326.0,0.1799
326.5,0.1822
327.0,0.1809
327.5,0.1739
328.0,0.1527
328.5,0.1634
329.0,0.1984
329.5,0.2263
330.0,0.2276
330.5,0.1802
331.0,0.183
331.5,0.1876
332.0,0.2051
332.5,0.204
333.0,0.2028
333.5,0.1821
334.0,0.1863
334.5,0.2172
335.0,0.2053
335.5,0.2401
336.0,0.1662
336.5,0.194
337.0,0.1586
337.5,0.197
338.0,0.194
338.5,0.2243
339.0,0.2222
339.5,0.2138
340.0,0.251
340.5,0.2265
341.0,0.2211
341.5,0.2033
342.0,0.2431
342.5,0.2276
343.0,0.2503
343.5,0.2357
344.0,0.1741
344.5,0.176
345.0,0.2332
345.5,0.2383
346.0,0.2027
346.5,0.2297
347.0,0.2466
347.5,0.1994
348.0,0.2276
348.5,0.2277
349.0,0.2114
349.5,0.2094
350.0,0.2591
350.5,0.2734
351.0,0.2443
351.5,0.2373
352.0,0.2552
352.5,0.1993
353.0,0.2512
353.5,0.2688
354.0,0.2792
354.5,0.2832
355.0,0.2824
355.5,0.2553
356.0,0.2673
356.5,0.2283
357.0,0.1887
357.5,0.2311
358.0,0.1832
358.5,0.1566
359.0,0.2191
359.5,0.2793
360.0,0.2962
360.5,0.2368
361.0,0.2161
361.5,0.249
362.0,0.2155
362.5,0.2985
363.0,0.2683
363.5,0.2473
364.0,0.3027
364.5,0.2588
365.0,0.2637
365.5,0.3312
366.0,0.3511
366.5,0.3301
367.0,0.3216
367.5,0.3339
368.0,0.2924
368.5,0.2952
369.0,0.319
369.5,0.3402
370.0,0.3628
370.5,0.2818
371.0,0.3012
371.5,0.377
372.0,0.2503
372.5,0.3003
373.0,0.3057
373.5,0.199
374.0,0.2893
374.5,0.2397
375.0,0.2331
375.5,0.3482
376.0,0.2888
376.5,0.2994
377.0,0.3171
377.5,0.3712
378.0,0.4025
378.5,0.3806
379.0,0.3142
379.5,0.287
380.0,0.2986
380.5,0.3618
381.0,0.3629
381.5,0.2878
382.0,0.2558
382.5,0.2182
383.0,0.2022
383.5,0.1948
384.0,0.215
384.5,0.3164
385.0,0.314
385.5,0.2926
386.0,0.2507
386.5,0.3295
387.0,0.2739
387.5,0.3078
388.0,0.2843
388.5,0.2812
389.0,0.3037
389.5,0.368
390.0,0.3695
390.5,0.3403
391.0,0.4007
391.5,0.4089
392.0,0.3445
392.5,0.3086
393.0,0.1718
393.5,0.125
394.0,0.2544
394.5,0.3237
395.0,0.3951
395.5,0.4015
396.0,0.3482
396.5,0.2037
397.0,0.153
397.5,0.3112
398.0,0.4359
398.5,0.4507
399.0,0.4885
399.5,0.4871
400.0,0.5059
401.0,0.5117
402.0,0.5404
403.0,0.5139
404.0,0.5064
405.0,0.5067
406.0,0.499
407.0,0.4914
408.0,0.5108
409.0,0.5471
410.0,0.4785
411.0,0.5188
412.0,0.5578
413.0,0.5442
414.0,0.5514
415.0,0.5533
416.0,0.5635
417.0,0.55
418.0,0.5402
419.0,0.5477
420.0,0.5456
421.0,0.5712
422.0,0.5433
423.0,0.531
424.0,0.5619
425.0,0.5613
426.0,0.5474
427.0,0.5374
428.0,0.5238
429.0,0.4966
430.0,0.435
431.0,0.4312
432.0,0.5572
433.0,0.5606
434.0,0.5208
435.0,0.544
436.0,0.6135
437.0,0.6059
438.0,0.5521
439.0,0.5707
440.0,0.5893
441.0,0.6111
442.0,0.6557
443.0,0.6386
444.0,0.6529
445.0,0.6389
446.0,0.6104
447.0,0.6605
448.0,0.6706
449.0,0.674
450.0,0.6933
451.0,0.7193
452.0,0.6933
453.0,0.6524
454.0,0.6816
455.0,0.6859
456.0,0.7025
457.0,0.7143
458.0,0.6898
459.0,0.6864
460.0,0.6882
461.0,0.7042
462.0,0.7101
463.0,0.7053
464.0,0.6943
465.0,0.6862
466.0,0.6933
467.0,0.6805
468.0,0.6886
469.0,0.6923
470.0,0.6702
471.0,0.6696
472.0,0.7055
473.0,0.6964
474.0,0.6971
475.0,0.7026
476.0,0.6811
477.0,0.6827
478.0,0.7018
479.0,0.6979
480.0,0.6996
481.0,0.7132
482.0,0.7175
483.0,0.7095
484.0,0.6953
485.0,0.6628
486.0,0.5798
487.0,0.608
488.0,0.6671
489.0,0.669
490.0,0.7041
491.0,0.6922
492.0,0.6538
493.0,0.6753
494.0,0.6822
495.0,0.6881
496.0,0.6923
497.0,0.7031
498.0,0.6701
499.0,0.6785
500.0,0.6585
501.0,0.646
502.0,0.6363
503.0,0.6615
504.0,0.6426
505.0,0.6673
506.0,0.6889
507.0,0.6556
508.0,0.6358
509.0,0.6542
510.0,0.6512
511.0,0.6691
512.0,0.6766
513.0,0.6405
514.0,0.6363
515.0,0.63
516.0,0.6284
517.0,0.5585
518.0,0.5871
519.0,0.6157
520.0,0.6381
521.0,0.6441
522.0,0.6445
523.0,0.6327
524.0,0.655
525.0,0.6622
526.0,0.6324
527.0,0.5955
528.0,0.6295
529.0,0.6632
530.0,0.6535
531.0,0.663
532.0,0.6401
533.0,0.6214
534.0,0.64
535.0,0.6542
536.0,0.6604
537.0,0.6346
538.0,0.6459
539.0,0.6405
540.0,0.614
541.0,0.6174
542.0,0.6364
543.0,0.6302
544.0,0.6406
545.0,0.6388
546.0,0.6411
547.0,0.6412
548.0,0.6338
549.0,0.6359
550.0,0.6435
551.0,0.6358
552.0,0.6402
553.0,0.6286
554.0,0.6436
555.0,0.6448
556.0,0.6363
557.0,0.6163
558.0,0.6114
559.0,0.5996
560.0,0.6069
561.0,0.6144
562.0,0.6096
563.0,0.6258
564.0,0.6084
565.0,0.6028
566.0,0.5937
567.0,0.6045
568.0,0.598
569.0,0.5816
570.0,0.5818
571.0,0.5788
572.0,0.5913
573.0,0.5973
574.0,0.5951
575.0,0.5835
576.0,0.5782
577.0,0.5848
578.0,0.5766
579.0,0.5799
580.0,0.5924
581.0,0.5967
582.0,0.609
583.0,0.6114
584.0,0.6172
585.0,0.6025
586.0,0.5901
587.0,0.6024
588.0,0.5851
589.0,0.5132
590.0,0.5371
591.0,0.5715
592.0,0.5624
593.0,0.5731
594.0,0.5681
595.0,0.5522
596.0,0.5783
597.0,0.5709
598.0,0.5708
599.0,0.5718
600.0,0.5738
601.0,0.5699
602.0,0.5661
603.0,0.5759
604.0,0.5857
605.0,0.5829
606.0,0.5809
607.0,0.5872
608.0,0.5812
609.0,0.5826
610.0,0.5789
611.0,0.5822
612.0,0.5808
613.0,0.5737
614.0,0.5662
615.0,0.579
616.0,0.5602
617.0,0.5593
618.0,0.5811
619.0,0.5753
620.0,0.5789
621.0,0.5792
622.0,0.572
623.0,0.563
624.0,0.5537
625.0,0.5525
626.0,0.5605
627.0,0.5658
628.0,0.5166
629.0,0.5483
630.0,0.5353
631.0,0.5514
632.0,0.5455
633.0,0.5638
634.0,0.5596
635.0,0.569
636.0,0.5623
637.0,0.572
638.0,0.5784
639.0,0.5724
640.0,0.5674
641.0,0.5675
642.0,0.5654
643.0,0.5731
644.0,0.5717
645.0,0.5724
646.0,0.5576
647.0,0.5477
648.0,0.5482
649.0,0.5372
650.0,0.544
651.0,0.5684
652.0,0.5404
653.0,0.561
654.0,0.5552
655.0,0.5323
656.0,0.4733
657.0,0.4863
658.0,0.5463
659.0,0.5508
660.0,0.5534
661.0,0.5574
662.0,0.5577
663.0,0.547
664.0,0.5547
665.0,0.556
666.0,0.5568
667.0,0.5568
668.0,0.5575
669.0,0.5664
670.0,0.5642
671.0,0.5643
672.0,0.5596
673.0,0.5683
674.0,0.5663
675.0,0.5614
676.0,0.5654
677.0,0.56
678.0,0.5617
679.0,0.5528
680.0,0.5573
681.0,0.5537
682.0,0.553
683.0,0.552
684.0,0.5492
685.0,0.5541
686.0,0.5506
687.0,0.3157
688.0,0.3925
689.0,0.3947
690.0,0.4219
691.0,0.4533
692.0,0.4774
693.0,0.4729
694.0,0.4695
695.0,0.4952
696.0,0.4962
697.0,0.534
698.0,0.5256
699.0,0.508
700.0,0.5016
701.0,0.4947
702.0,0.5001
703.0,0.5013
704.0,0.5204
705.0,0.5211
706.0,0.5219
707.0,0.5227
708.0,0.5237
709.0,0.5265
710.0,0.5254
711.0,0.5254
712.0,0.5248
713.0,0.5186
714.0,0.5208
715.0,0.5023
716.0,0.5021
717.0,0.4172
718.0,0.3812
719.0,0.3476
720.0,0.3624
721.0,0.4108
722.0,0.4815
723.0,0.4424
724.0,0.3916
725.0,0.383
726.0,0.4017
727.0,0.412
728.0,0.3812
729.0,0.4019
730.0,0.4243
731.0,0.4045
732.0,0.4394
733.0,0.4715
734.0,0.4847
735.0,0.4736
736.0,0.4729
737.0,0.4747
738.0,0.4867
739.0,0.4772
740.0,0.491
741.0,0.487
742.0,0.4883
743.0,0.501
744.0,0.5001
745.0,0.5007
746.0,0.503
747.0,0.5042
748.0,0.5032
749.0,0.4975
750.0,0.4972
751.0,0.4922
752.0,0.4944
753.0,0.497
754.0,0.4981
755.0,0.4952
756.0,0.4951
757.0,0.4958
758.0,0.4895
759.0,0.4766
760.0,0.0418
761.0,0.01751
762.0,0.1927
763.0,0.07436
764.0,0.1298
765.0,0.1925
766.0,0.2586
767.0,0.351
768.0,0.4263
769.0,0.4402
770.0,0.4608
771.0,0.467
772.0,0.4688
773.0,0.4723
774.0,0.4702
775.0,0.4668
776.0,0.4725
777.0,0.4663
778.0,0.4635
779.0,0.4638
780.0,0.4613
781.0,0.4618
782.0,0.4647
783.0,0.4567
784.0,0.459
785.0,0.4554
786.0,0.4602
787.0,0.4499
788.0,0.4433
789.0,0.4429
790.0,0.428
791.0,0.4348
792.0,0.4321
793.0,0.4247
794.0,0.4352
795.0,0.4417
796.0,0.4238
797.0,0.424
798.0,0.4407
799.0,0.4371
800.0,0.4284
801.0,0.4261
802.0,0.4249
803.0,0.4211
804.0,0.4222
805.0,0.4221
806.0,0.4361
807.0,0.4304
808.0,0.431
809.0,0.4212
810.0,0.4167
811.0,0.4148
812.0,0.4001
813.0,0.3903
814.0,0.3345
815.0,0.3329
816.0,0.3088
817.0,0.3152
818.0,0.3014
819.0,0.3446
820.0,0.3217
821.0,0.387
822.0,0.3742
823.0,0.2376
824.0,0.3592
825.0,0.3802
826.0,0.3622
827.0,0.3859
828.0,0.3168
829.0,0.3608
830.0,0.3551
831.0,0.3565
832.0,0.3437
833.0,0.3706
834.0,0.3541
835.0,0.3966
836.0,0.3747
837.0,0.398
838.0,0.3831
839.0,0.3925
840.0,0.4017
841.0,0.3949
842.0,0.3975
843.0,0.399
844.0,0.3925
845.0,0.407
846.0,0.4055
847.0,0.3985
848.0,0.3952
849.0,0.384
850.0,0.368
851.0,0.3888
852.0,0.3865
853.0,0.3726
854.0,0.3212
855.0,0.3537
856.0,0.3861
857.0,0.3953
858.0,0.3921
859.0,0.3928
860.0,0.3938
861.0,0.3915
862.0,0.3978
863.0,0.4072
864.0,0.3869
865.0,0.3836
866.0,0.3449
867.0,0.36
868.0,0.3917
869.0,0.3836
870.0,0.3946
871.0,0.3892
872.0,0.3879
873.0,0.3871
874.0,0.3825
875.0,0.3747
876.0,0.3786
877.0,0.3825
878.0,0.3865
879.0,0.3806
880.0,0.3724
881.0,0.3665
882.0,0.3742
883.0,0.3758
884.0,0.3739
885.0,0.3767
886.0,0.3576
887.0,0.3625
888.0,0.3672
889.0,0.3726
890.0,0.368
891.0,0.3682
892.0,0.3555
893.0,0.3424
894.0,0.3261
895.0,0.3028
896.0,0.2836
897.0,0.2372
898.0,0.2622
899.0,0.1921
900.0,0.2726
901.0,0.2013
902.0,0.2462
903.0,0.2452
904.0,0.3236
905.0,0.3104
906.0,0.2888
907.0,0.2245
908.0,0.2307
909.0,0.2542
910.0,0.2168
911.0,0.2367
912.0,0.2484
913.0,0.2196
914.0,0.2193
915.0,0.2374
916.0,0.1996
917.0,0.2613
918.0,0.2041
919.0,0.2687
920.0,0.2768
921.0,0.288
922.0,0.2515
923.0,0.2787
924.0,0.2566
925.0,0.2513
926.0,0.2533
927.0,0.2894
928.0,0.1956
929.0,0.1741
930.0,0.1299
931.0,0.1236
932.0,0.08198
933.0,0.06343
934.0,0.02832
935.0,0.06749
936.0,0.03787
937.0,0.03809
938.0,0.0484
939.0,0.1196
940.0,0.1491
941.0,0.1058
942.0,0.1262
943.0,0.07792
944.0,0.0871
945.0,0.1105
946.0,0.04948
947.0,0.1092
948.0,0.07947
949.0,0.1529
950.0,0.033
951.0,0.1516
952.0,0.07283
953.0,0.09978
954.0,0.1288
955.0,0.1016
956.0,0.1041
957.0,0.07233
958.0,0.1554
959.0,0.1156
960.0,0.1296
961.0,0.1517
962.0,0.143
963.0,0.1703
964.0,0.1544
965.0,0.1698
966.0,0.1688
967.0,0.1674
968.0,0.2451
969.0,0.2534
970.0,0.2305
971.0,0.273
972.0,0.2592
973.0,0.2165
974.0,0.2045
975.0,0.2156
976.0,0.1996
977.0,0.2375
978.0,0.2213
979.0,0.2345
980.0,0.219
981.0,0.2717
982.0,0.2563
983.0,0.2442
984.0,0.284
985.0,0.2553
986.0,0.2915
987.0,0.2828
988.0,0.2825
989.0,0.2922
990.0,0.2807
991.0,0.2928
992.0,0.2948
993.0,0.2853
994.0,0.295
995.0,0.2951
996.0,0.2933
997.0,0.2939
998.0,0.2924
999.0,0.2914
1000.0,0.2887
1001.0,0.2931
1002.0,0.2822
1003.0,0.2877
1004.0,0.28
1005.0,0.2707
1006.0,0.2808
1007.0,0.287
1008.0,0.2849
1009.0,0.2829
1010.0,0.2814
1011.0,0.2856
1012.0,0.2826
1013.0,0.2851
1014.0,0.2831
1015.0,0.2811
1016.0,0.2798
1017.0,0.2804
1018.0,0.2797
1019.0,0.2727
1020.0,0.278
1021.0,0.2779
1022.0,0.2753
1023.0,0.2782
1024.0,0.2734
1025.0,0.2783
1026.0,0.2769
1027.0,0.2763
1028.0,0.2756
1029.0,0.2723
1030.0,0.2745
1031.0,0.2733
1032.0,0.2726
1033.0,0.2685
1034.0,0.2685
1035.0,0.2693
1036.0,0.2706
1037.0,0.2663
1038.0,0.2674
1039.0,0.2672
1040.0,0.2661
1041.0,0.267
1042.0,0.2652
1043.0,0.2643
1044.0,0.2651
1045.0,0.2615
1046.0,0.2585
1047.0,0.2608
1048.0,0.2621
1049.0,0.2611
1050.0,0.2598
1051.0,0.2593
1052.0,0.2581
1053.0,0.256
1054.0,0.2564
1055.0,0.2563
1056.0,0.2553
1057.0,0.2543
1058.0,0.2479
1059.0,0.248
1060.0,0.2475
1061.0,0.2471
1062.0,0.2483
1063.0,0.2457
1064.0,0.2486
1065.0,0.2464
1066.0,0.2419
1067.0,0.2449
1068.0,0.2393
1069.0,0.2321
1070.0,0.2397
1071.0,0.2444
1072.0,0.2408
1073.0,0.2375
1074.0,0.2448
1075.0,0.2296
1076.0,0.2444
1077.0,0.2384
1078.0,0.2332
1079.0,0.241
1080.0,0.2348
1081.0,0.2258
1082.0,0.2319
1083.0,0.2333
1084.0,0.2246
1085.0,0.2356
1086.0,0.211
1087.0,0.2205
1088.0,0.2325
1089.0,0.2226
1090.0,0.2162
1091.0,0.231
1092.0,0.231
1093.0,0.1884
1094.0,0.2104
1095.0,0.1969
1096.0,0.1864
1097.0,0.2257
1098.0,0.1824
1099.0,0.1915
1100.0,0.175
1101.0,0.1782
1102.0,0.1681
1103.0,0.165
1104.0,0.1654
1105.0,0.1864
1106.0,0.1306
1107.0,0.1748
1108.0,0.141
1109.0,0.1426
1110.0,0.172
1111.0,0.1072
1112.0,0.142
1113.0,0.08113
1114.0,0.09128
1115.0,0.07509
1116.0,0.05487
1117.0,0.01543
1118.0,0.06112
1119.0,0.02614
1120.0,0.0324
1121.0,0.0453
1122.0,0.01571
1123.0,0.02946
1124.0,0.02481
1125.0,0.0334
1126.0,0.008469
1127.0,0.03799
1128.0,0.01911
1129.0,0.02067
1130.0,0.01269
1131.0,0.08169
1132.0,0.0622
1133.0,0.03422
1134.0,0.006413
1135.0,0.002557
1136.0,0.0268
1137.0,0.07826
1138.0,0.05421
1139.0,0.09196
1140.0,0.07256
1141.0,0.05164
1142.0,0.06147
1143.0,0.09207
1144.0,0.02721
1145.0,0.03304
1146.0,0.03558
1147.0,0.009374
1148.0,0.07921
1149.0,0.06009
1150.0,0.03012
1151.0,0.05376
1152.0,0.06996
1153.0,0.07117
1154.0,0.03201
1155.0,0.09576
1156.0,0.08397
1157.0,0.09846
1158.0,0.09726
1159.0,0.1075
1160.0,0.08946
1161.0,0.1164
1162.0,0.1164
1163.0,0.1683
1164.0,0.1404
1165.0,0.1285
1166.0,0.1308
1167.0,0.1443
1168.0,0.145
1169.0,0.1496
1170.0,0.166
1171.0,0.1616
1172.0,0.1667
1173.0,0.1657
1174.0,0.1105
1175.0,0.1637
1176.0,0.1844
1177.0,0.174
1178.0,0.1248
1179.0,0.186
1180.0,0.1612
1181.0,0.1666
1182.0,0.1084
1183.0,0.165
1184.0,0.1525
1185.0,0.1451
1186.0,0.1787
1187.0,0.1681
1188.0,0.1092
1189.0,0.1563
1190.0,0.175
1191.0,0.1621
1192.0,0.1779
1193.0,0.1691
1194.0,0.1752
1195.0,0.1629
1196.0,0.1553
1197.0,0.1765
1198.0,0.16
1199.0,0.1303
1200.0,0.1668
1201.0,0.1588
1202.0,0.1595
1203.0,0.1573
1204.0,0.135
1205.0,0.1649
1206.0,0.185
1207.0,0.1583
1208.0,0.1576
1209.0,0.1612
1210.0,0.1692
1211.0,0.1591
1212.0,0.1541
1213.0,0.1775
1214.0,0.159
1215.0,0.1556
1216.0,0.1772
1217.0,0.1714
1218.0,0.1757
1219.0,0.1729
1220.0,0.176
1221.0,0.1783
1222.0,0.1732
1223.0,0.1711
1224.0,0.169
1225.0,0.1771
1226.0,0.1791
1227.0,0.1622
1228.0,0.1806
1229.0,0.1791
1230.0,0.1755
1231.0,0.1824
1232.0,0.1813
1233.0,0.1725
1234.0,0.1828
1235.0,0.1813
1236.0,0.1829
1237.0,0.1793
1238.0,0.1823
1239.0,0.1799
1240.0,0.1807
1241.0,0.1792
1242.0,0.1794
1243.0,0.178
1244.0,0.1791
1245.0,0.18
1246.0,0.1789
1247.0,0.1781
1248.0,0.1776
1249.0,0.1785
1250.0,0.1772
1251.0,0.1745
1252.0,0.175
1253.0,0.1727
1254.0,0.1703
1255.0,0.1746
1256.0,0.1681
1257.0,0.1668
1258.0,0.1712
1259.0,0.1625
1260.0,0.1636
1261.0,0.1513
1262.0,0.1451
1263.0,0.1453
1264.0,0.1304
1265.0,0.1444
1266.0,0.1367
1267.0,0.1407
1268.0,0.131
1269.0,0.06681
1270.0,0.1396
1271.0,0.1512
1272.0,0.152
1273.0,0.1501
1274.0,0.151
1275.0,0.1538
1276.0,0.1559
1277.0,0.1577
1278.0,0.162
1279.0,0.1605
1280.0,0.1586
1281.0,0.1519
1282.0,0.1473
1283.0,0.1585
1284.0,0.1621
1285.0,0.1633
1286.0,0.166
1287.0,0.1625
1288.0,0.1627
1289.0,0.1556
1290.0,0.1614
1291.0,0.164
1292.0,0.1505
1293.0,0.16
1294.0,0.1587
1295.0,0.1568
1296.0,0.1475
1297.0,0.1378
1298.0,0.1519
1299.0,0.1605
1300.0,0.13
1301.0,0.1351
1302.0,0.1515
1303.0,0.1289
1304.0,0.1046
1305.0,0.1481
1306.0,0.1476
1307.0,0.1089
1308.0,0.1301
1309.0,0.1457
1310.0,0.1064
1311.0,0.1235
1312.0,0.1193
1313.0,0.1159
1314.0,0.1018
1315.0,0.09924
1316.0,0.1205
1317.0,0.1134
1318.0,0.1256
1319.0,0.09174
1320.0,0.09023
1321.0,0.1073
1322.0,0.1072
1323.0,0.0755
1324.0,0.09021
1325.0,0.1182
1326.0,0.09819
1327.0,0.09275
1328.0,0.07822
1329.0,0.05425
1330.0,0.07293
1331.0,0.0391
1332.0,0.0419
1333.0,0.05928
1334.0,0.05321
1335.0,0.07491
1336.0,0.05646
1337.0,0.04894
1338.0,0.05274
1339.0,0.05322
1340.0,0.0532
1341.0,0.04857
1342.0,0.0514
1343.0,0.02908
1344.0,0.01793
1345.0,0.0257
1346.0,0.009749
1347.0,0.009405
1348.0,0.0003404
1349.0,0.001418
1350.0,0.001636
1351.0,0.0002321
1352.0,3.207e-05
1353.0,9.385e-07
1354.0,4.919e-06
1355.0,1.135e-08
1356.0,4.483e-07
1357.0,6.838e-07
1358.0,1.411e-08
1359.0,7.371e-10
1360.0,4.638e-09
1361.0,1.314e-12
1362.0,2.851e-15
1363.0,4.3e-09
1364.0,1.886e-09
1365.0,8.441e-16
1366.0,2.338e-08
1367.0,1.249e-08
1368.0,6.113e-18
1369.0,6.924e-10
1370.0,2.424e-10
1371.0,1.011e-11
1372.0,7.05e-09
1373.0,2.583e-07
1374.0,1.878e-06
1375.0,3.098e-06
1376.0,4.558e-06
1377.0,1.917e-06
1378.0,2.102e-05
1379.0,8.149e-07
1380.0,8.467e-07
1381.0,1.836e-08
1382.0,5.632e-09
1383.0,6.664e-11
1384.0,6.625e-10
1385.0,8.674e-09
1386.0,3.768e-09
1387.0,1.356e-06
1388.0,3.199e-08
1389.0,8.099e-06
1390.0,6.667e-06
1391.0,4.231e-06
1392.0,2.583e-07
1393.0,1.711e-06
1394.0,3.922e-07
1395.0,1.978e-09
1396.0,2.046e-12
1397.0,5.729e-07
1398.0,2.19e-05
1399.0,1.439e-05
1400.0,6.847e-13
1401.0,4.069e-12
1402.0,8.299e-05
1403.0,8.98e-05
1404.0,2.545e-05
1405.0,6.852e-10
1406.0,5.134e-05
1407.0,6.08e-06
1408.0,4.422e-05
1409.0,1.005e-05
1410.0,1.13e-05
1411.0,8.154e-05
1412.0,0.0001329
1413.0,0.002214
1414.0,9.467e-06
1415.0,3.845e-06
1416.0,0.005239
1417.0,0.001158
1418.0,0.001164
1419.0,0.0001678
1420.0,0.0007027
1421.0,0.0008232
1422.0,0.006879
1423.0,0.001242
1424.0,0.002489
1425.0,0.003348
1426.0,0.00446
1427.0,0.009582
1428.0,0.0003002
1429.0,0.006365
1430.0,0.01302
1431.0,0.01485
1432.0,0.0002312
1433.0,0.008738
1434.0,0.004106
