interpolation:linear
wavelength,value
280.0,5.716e-22
280.5,1.18e-20
281.0,5.4150000000000004e-20
281.5,1.169e-18
282.0,7.513e-18
282.5,2.495e-17
283.0,9.462e-17
283.5,1.643e-16
284.0,3.092e-15
284.5,9.227e-15
285.0,2.605e-14
285.5,1.745e-13
286.0,7.645e-13
286.5,3.9e-12
287.0,1.198e-11
287.5,4.914e-11
288.0,1.69e-10
288.5,6.286e-10
289.0,1.973e-09
289.5,6.868e-09
290.0,2.108e-08
290.5,4.644e-08
291.0,1.085e-07
291.5,3.452e-07
292.0,7.791e-07
292.5,1.128e-06
293.0,2.511e-06
293.5,6.413e-06
294.0,1.04e-05
294.5,2.027e-05
295.0,3.583e-05
295.5,7.486e-05
296.0,0.0001326
296.5,0.0001705
297.0,0.0002153
297.5,0.0005214
298.0,0.0007537
298.5,0.0007095
299.0,0.001466
299.5,0.002174
300.0,0.002247
300.5,0.003053
301.0,0.004985
301.5,0.007243
302.0,0.005913
302.5,0.01079
303.0,0.01778
303.5,0.02122
304.0,0.01925
304.5,0.02623
305.0,0.03514
305.5,0.03727
306.0,0.03502
306.5,0.04154
307.0,0.0555
307.5,0.06688
308.0,0.06952
308.5,0.07828
309.0,0.07392
309.5,0.07903
310.0,0.0769
310.5,0.1226
311.0,0.1498
311.5,0.1429
312.0,0.1349
312.5,0.158
313.0,0.1679
313.5,0.166
314.0,0.1982
314.5,0.1654
315.0,0.215
315.5,0.1851
316.0,0.1538
316.5,0.2117
317.0,0.263
317.5,0.2769
318.0,0.2098
318.5,0.2465
319.0,0.2845
319.5,0.2422
320.0,0.2945
320.5,0.3485
321.0,0.2952
321.5,0.2815
322.0,0.3163
322.5,0.2743
323.0,0.2637
323.5,0.3133
324.0,0.3634
324.5,0.3742
325.0,0.3294
325.5,0.4118
326.0,0.4984
326.5,0.4897
327.0,0.4912
327.5,0.4784
328.0,0.4366
328.5,0.4451
329.0,0.5203
329.5,0.5862
330.0,0.5945
330.5,0.4843
331.0,0.4963
331.5,0.4975
332.0,0.5269
332.5,0.5165
333.0,0.5174
333.5,0.4749
334.0,0.4875
334.5,0.5532
335.0,0.5149
335.5,0.601
336.0,0.4157
336.5,0.4889
337.0,0.4037
337.5,0.5032
338.0,0.4847
338.5,0.559
339.0,0.5529
339.5,0.5316
340.0,0.6249
340.5,0.5624
341.0,0.5485
341.5,0.5033
342.0,0.6012
342.5,0.5622
343.0,0.6183
343.5,0.5822
344.0,0.4298
344.5,0.4342
345.0,0.5742
345.5,0.5858
346.0,0.4976
346.5,0.5632
347.0,0.6045
347.5,0.4886
348.0,0.5567
348.5,0.5562
349.0,0.5157
349.5,0.5104
350.0,0.631
350.5,0.6654
351.0,0.5944
351.5,0.5777
352.0,0.6201
352.5,0.4837
353.0,0.6088
353.5,0.6508
354.0,0.6754
354.5,0.6849
355.0,0.6825
355.5,0.6163
356.0,0.6445
356.5,0.5502
357.0,0.4546
357.5,0.5565
358.0,0.4409
358.5,0.3767
359.0,0.5268
359.5,0.6714
360.0,0.7116
360.5,0.5686
361.0,0.5181
361.5,0.5962
362.0,0.5152
362.5,0.7126
363.0,0.6397
363.5,0.589
364.0,0.7201
364.5,0.6153
365.0,0.6266
365.5,0.7862
366.0,0.8326
366.5,0.782
367.0,0.7614
367.5,0.79
368.0,0.6911
368.5,0.6972
369.0,0.7527
369.5,0.8021
370.0,0.8549
370.5,0.6633
371.0,0.7085
371.5,0.8863
372.0,0.5882
372.5,0.7051
373.0,0.717
373.5,0.4664
374.0,0.6775
374.5,0.5609
375.0,0.5452
375.5,0.8139
376.0,0.6746
376.5,0.699
377.0,0.7399
377.5,0.8654
378.0,0.9381
378.5,0.8866
379.0,0.7317
379.5,0.6683
380.0,0.6948
380.5,0.8413
381.0,0.8428
381.5,0.6678
382.0,0.5929
382.5,0.5052
383.0,0.4676
383.5,0.4503
384.0,0.4966
384.5,0.7303
385.0,0.724
385.5,0.6741
386.0,0.5773
386.5,0.7581
387.0,0.6298
387.5,0.7074
388.0,0.653
388.5,0.6453
389.0,0.6965
389.5,0.8435
390.0,0.8463
390.5,0.7787
391.0,0.9165
391.5,0.9347
392.0,0.7872
392.5,0.7046
393.0,0.3919
393.5,0.2848
394.0,0.5795
394.5,0.7367
395.0,0.8988
395.5,0.913
396.0,0.7915
396.5,0.4625
397.0,0.347
397.5,0.7057
398.0,0.9883
398.5,1.021
399.0,1.106
399.5,1.102
400.0,1.144
401.0,1.164
402.0,1.227
403.0,1.165
404.0,1.147
405.0,1.147
406.0,1.128
407.0,1.109
408.0,1.152
409.0,1.233
410.0,1.077
411.0,1.166
412.0,1.251
413.0,1.22
414.0,1.235
415.0,1.237
416.0,1.258
417.0,1.227
418.0,1.204
419.0,1.219
420.0,1.214
421.0,1.269
422.0,1.206
423.0,1.178
424.0,1.246
425.0,1.243
426.0,1.21
427.0,1.187
428.0,1.156
429.0,1.094
430.0,0.9573
431.0,0.949
432.0,1.225
433.0,1.231
434.0,1.143
435.0,1.194
436.0,1.344
437.0,1.325
438.0,1.206
439.0,1.248
440.0,1.287
441.0,1.333
442.0,1.43
443.0,1.393
444.0,1.422
445.0,1.392
446.0,1.327
447.0,1.434
448.0,1.457
449.0,1.461
450.0,1.501
451.0,1.557
452.0,1.499
453.0,1.41
454.0,1.471
455.0,1.48
456.0,1.515
457.0,1.54
458.0,1.488
459.0,1.48
460.0,1.484
461.0,1.518
462.0,1.529
463.0,1.518
464.0,1.492
465.0,1.472
466.0,1.486
467.0,1.459
468.0,1.476
469.0,1.483
470.0,1.436
471.0,1.434
472.0,1.511
473.0,1.492
474.0,1.495
475.0,1.508
476.0,1.464
477.0,1.469
478.0,1.509
479.0,1.499
480.0,1.501
481.0,1.528
482.0,1.535
483.0,1.515
484.0,1.484
485.0,1.413
486.0,1.235
487.0,1.293
488.0,1.419
489.0,1.424
490.0,1.497
491.0,1.471
492.0,1.389
493.0,1.434
494.0,1.448
495.0,1.46
496.0,1.469
497.0,1.492
498.0,1.422
499.0,1.441
500.0,1.399
501.0,1.374
502.0,1.356
503.0,1.413
504.0,1.381
505.0,1.427
506.0,1.473
507.0,1.402
508.0,1.357
509.0,1.394
510.0,1.386
511.0,1.422
512.0,1.437
513.0,1.36
514.0,1.35
515.0,1.337
516.0,1.333
517.0,1.185
518.0,1.245
519.0,1.306
520.0,1.354
521.0,1.367
522.0,1.369
523.0,1.344
524.0,1.393
525.0,1.41
526.0,1.348
527.0,1.271
528.0,1.344
529.0,1.418
530.0,1.398
531.0,1.419
532.0,1.37
533.0,1.33
534.0,1.369
535.0,1.398
536.0,1.411
537.0,1.355
538.0,1.378
539.0,1.367
540.0,1.311
541.0,1.321
542.0,1.362
543.0,1.347
544.0,1.371
545.0,1.367
546.0,1.374
547.0,1.373
548.0,1.356
549.0,1.359
550.0,1.375
551.0,1.359
552.0,1.368
553.0,1.344
554.0,1.376
555.0,1.379
556.0,1.361
557.0,1.319
558.0,1.31
559.0,1.286
560.0,1.303
561.0,1.32
562.0,1.311
563.0,1.348
564.0,1.312
565.0,1.301
566.0,1.283
567.0,1.308
568.0,1.298
569.0,1.271
570.0,1.27
571.0,1.262
572.0,1.295
573.0,1.309
574.0,1.305
575.0,1.282
576.0,1.27
577.0,1.284
578.0,1.263
579.0,1.266
580.0,1.288
581.0,1.292
582.0,1.315
583.0,1.316
584.0,1.327
585.0,1.294
586.0,1.267
587.0,1.296
588.0,1.27
589.0,1.135
590.0,1.186
591.0,1.249
592.0,1.237
593.0,1.251
594.0,1.244
595.0,1.217
596.0,1.257
597.0,1.245
598.0,1.239
599.0,1.239
600.0,1.239
601.0,1.227
602.0,1.219
603.0,1.238
604.0,1.258
605.0,1.251
606.0,1.245
607.0,1.257
608.0,1.242
609.0,1.243
610.0,1.234
611.0,1.24
612.0,1.236
613.0,1.22
614.0,1.202
615.0,1.228
616.0,1.187
617.0,1.184
618.0,1.229
619.0,1.216
620.0,1.224
621.0,1.226
622.0,1.212
623.0,1.195
624.0,1.174
625.0,1.171
626.0,1.188
627.0,1.203
628.0,1.145
629.0,1.182
630.0,1.156
631.0,1.175
632.0,1.159
633.0,1.192
634.0,1.178
635.0,1.195
636.0,1.178
637.0,1.196
638.0,1.206
639.0,1.192
640.0,1.179
641.0,1.178
642.0,1.171
643.0,1.187
644.0,1.182
645.0,1.185
646.0,1.16
647.0,1.152
648.0,1.154
649.0,1.132
650.0,1.13
651.0,1.177
652.0,1.136
653.0,1.161
654.0,1.148
655.0,1.109
656.0,0.9799
657.0,1.006
658.0,1.125
659.0,1.132
660.0,1.136
661.0,1.144
662.0,1.148
663.0,1.125
664.0,1.136
665.0,1.135
666.0,1.135
667.0,1.134
668.0,1.133
669.0,1.15
670.0,1.145
671.0,1.144
672.0,1.134
673.0,1.151
674.0,1.146
675.0,1.136
676.0,1.143
677.0,1.132
678.0,1.134
679.0,1.116
680.0,1.125
681.0,1.117
682.0,1.116
683.0,1.114
684.0,1.108
685.0,1.117
686.0,1.111
687.0,0.8327
688.0,0.9292
689.0,0.931
690.0,0.9613
691.0,0.9948
692.0,1.018
693.0,1.011
694.0,1.003
695.0,1.033
696.0,1.035
697.0,1.083
698.0,1.067
699.0,1.051
700.0,1.038
701.0,1.03
702.0,1.034
703.0,1.036
704.0,1.063
705.0,1.065
706.0,1.062
707.0,1.062
708.0,1.064
709.0,1.062
710.0,1.064
711.0,1.061
712.0,1.057
713.0,1.048
714.0,1.051
715.0,1.021
716.0,1.023
717.0,0.9223
718.0,0.8539
719.0,0.7864
720.0,0.8259
721.0,0.8895
722.0,0.9933
723.0,0.9376
724.0,0.859
725.0,0.8503
726.0,0.8869
727.0,0.8917
728.0,0.8495
729.0,0.8685
730.0,0.9181
731.0,0.8828
732.0,0.9309
733.0,0.9724
734.0,0.9921
735.0,0.9733
736.0,0.9718
737.0,0.9761
738.0,0.9829
739.0,0.9638
740.0,0.9863
741.0,0.975
742.0,0.9744
743.0,0.9987
744.0,0.995
745.0,0.9944
746.0,0.999
747.0,1.001
748.0,0.9988
749.0,0.9874
750.0,0.9867
751.0,0.9767
752.0,0.9808
753.0,0.9856
754.0,0.9879
755.0,0.9823
756.0,0.9818
757.0,0.9832
758.0,0.9712
759.0,0.9562
760.0,0.2662
761.0,0.1678
762.0,0.5888
763.0,0.3602
764.0,0.4815
765.0,0.5893
766.0,0.6744
767.0,0.8042
768.0,0.8921
769.0,0.903
770.0,0.9249
771.0,0.9285
772.0,0.9292
773.0,0.9354
774.0,0.9306
775.0,0.9234
776.0,0.9345
777.0,0.9221
778.0,0.9166
779.0,0.9173
780.0,0.9121
781.0,0.913
782.0,0.9186
783.0,0.9025
784.0,0.9067
785.0,0.9003
786.0,0.9105
787.0,0.8983
788.0,0.8888
789.0,0.889
790.0,0.8708
791.0,0.8731
792.0,0.8661
793.0,0.8526
794.0,0.8615
795.0,0.8775
796.0,0.8579
797.0,0.8591
798.0,0.8772
799.0,0.873
800.0,0.8597
801.0,0.8585
802.0,0.8559
803.0,0.8503
804.0,0.8506
805.0,0.8459
806.0,0.8662
807.0,0.8566
808.0,0.857
809.0,0.8435
810.0,0.8385
811.0,0.8429
812.0,0.824
813.0,0.8103
814.0,0.7308
815.0,0.7259
816.0,0.6784
817.0,0.6884
818.0,0.6667
819.0,0.7295
820.0,0.6933
821.0,0.789
822.0,0.77
823.0,0.5587
824.0,0.7548
825.0,0.7765
826.0,0.7534
827.0,0.7881
828.0,0.6875
829.0,0.7475
830.0,0.7398
831.0,0.7416
832.0,0.7225
833.0,0.7584
834.0,0.738
835.0,0.7971
836.0,0.7714
837.0,0.7987
838.0,0.7775
839.0,0.7859
840.0,0.8021
841.0,0.7924
842.0,0.7916
843.0,0.7887
844.0,0.7791
845.0,0.8035
846.0,0.7996
847.0,0.7839
848.0,0.7802
849.0,0.758
850.0,0.7261
851.0,0.7699
852.0,0.764
853.0,0.7345
854.0,0.6349
855.0,0.6965
856.0,0.7616
857.0,0.7778
858.0,0.7724
859.0,0.7726
860.0,0.7737
861.0,0.7695
862.0,0.7815
863.0,0.7999
864.0,0.7599
865.0,0.7531
866.0,0.6772
867.0,0.7067
868.0,0.7689
869.0,0.7529
870.0,0.7744
871.0,0.7638
872.0,0.7611
873.0,0.7595
874.0,0.7505
875.0,0.7353
876.0,0.7431
877.0,0.7505
878.0,0.7588
879.0,0.7471
880.0,0.7311
881.0,0.7206
882.0,0.7364
883.0,0.7382
884.0,0.735
885.0,0.7406
886.0,0.7077
887.0,0.7138
888.0,0.7253
889.0,0.7318
890.0,0.7277
891.0,0.7254
892.0,0.707
893.0,0.6882
894.0,0.6701
895.0,0.641
896.0,0.6078
897.0,0.5332
898.0,0.5753
899.0,0.4515
900.0,0.5824
901.0,0.4725
902.0,0.5363
903.0,0.5473
904.0,0.665
905.0,0.6457
906.0,0.6072
907.0,0.5098
908.0,0.5177
909.0,0.5527
910.0,0.503
911.0,0.5277
912.0,0.5482
913.0,0.5111
914.0,0.5043
915.0,0.5449
916.0,0.4661
917.0,0.5752
918.0,0.4782
919.0,0.5822
920.0,0.5813
921.0,0.6025
922.0,0.5489
923.0,0.5816
924.0,0.5629
925.0,0.5511
926.0,0.5569
927.0,0.6137
928.0,0.4782
929.0,0.4441
930.0,0.3615
931.0,0.3402
932.0,0.2576
933.0,0.2167
934.0,0.1342
935.0,0.2157
936.0,0.1442
937.0,0.1477
938.0,0.1776
939.0,0.3297
940.0,0.388
941.0,0.3048
942.0,0.345
943.0,0.2364
944.0,0.2407
945.0,0.3122
946.0,0.1719
947.0,0.3168
948.0,0.2351
949.0,0.4111
950.0,0.1353
951.0,0.4025
952.0,0.2337
953.0,0.2904
954.0,0.3436
955.0,0.2923
956.0,0.2786
957.0,0.2359
958.0,0.3764
959.0,0.3122
960.0,0.3494
961.0,0.3822
962.0,0.3631
963.0,0.4098
964.0,0.3785
965.0,0.4071
966.0,0.4095
967.0,0.4085
968.0,0.5183
969.0,0.5432
970.0,0.5032
971.0,0.5632
972.0,0.5412
973.0,0.484
974.0,0.4615
975.0,0.4738
976.0,0.4565
977.0,0.5064
978.0,0.4866
979.0,0.5054
980.0,0.478
981.0,0.5593
982.0,0.5393
983.0,0.5206
984.0,0.5713
985.0,0.5371
986.0,0.5783
987.0,0.5702
988.0,0.5691
989.0,0.5747
990.0,0.5654
991.0,0.5768
992.0,0.5798
993.0,0.57
994.0,0.5793
995.0,0.5781
996.0,0.5761
997.0,0.5767
998.0,0.5741
999.0,0.5719
1000.0,0.5686
1001.0,0.5749
1002.0,0.5621
1003.0,0.5649
1004.0,0.5519
1005.0,0.5306
1006.0,0.5519
1007.0,0.5632
1008.0,0.5608
1009.0,0.5584
1010.0,0.5563
1011.0,0.5603
1012.0,0.5561
1013.0,0.5588
1014.0,0.5549
1015.0,0.5513
1016.0,0.5489
1017.0,0.5504
1018.0,0.548
1019.0,0.5374
1020.0,0.5452
1021.0,0.5443
1022.0,0.5405
1023.0,0.5463
1024.0,0.5404
1025.0,0.5455
1026.0,0.5435
1027.0,0.5422
1028.0,0.5411
1029.0,0.5348
1030.0,0.5381
1031.0,0.5361
1032.0,0.5344
1033.0,0.5264
1034.0,0.5264
1035.0,0.528
1036.0,0.5309
1037.0,0.5222
1038.0,0.5245
1039.0,0.5243
1040.0,0.5222
1041.0,0.5244
1042.0,0.5208
1043.0,0.5192
1044.0,0.5211
1045.0,0.5141
1046.0,0.5085
1047.0,0.5131
1048.0,0.516
1049.0,0.5142
1050.0,0.512
1051.0,0.5114
1052.0,0.5094
1053.0,0.5055
1054.0,0.5067
1055.0,0.5072
1056.0,0.5056
1057.0,0.5042
1058.0,0.492
1059.0,0.4927
1060.0,0.492
1061.0,0.4915
1062.0,0.4943
1063.0,0.4896
1064.0,0.4953
1065.0,0.4922
1066.0,0.4821
1067.0,0.4885
1068.0,0.4781
1069.0,0.4631
1070.0,0.4791
1071.0,0.4855
1072.0,0.4807
1073.0,0.4736
1074.0,0.4847
1075.0,0.4637
1076.0,0.4845
1077.0,0.4777
1078.0,0.4693
1079.0,0.4762
1080.0,0.4704
1081.0,0.4568
1082.0,0.4614
1083.0,0.4621
1084.0,0.4566
1085.0,0.4711
1086.0,0.4353
1087.0,0.4452
1088.0,0.4622
1089.0,0.4511
1090.0,0.4435
1091.0,0.4616
1092.0,0.4597
1093.0,0.3995
1094.0,0.4218
1095.0,0.4147
1096.0,0.4
1097.0,0.4489
1098.0,0.3947
1099.0,0.4102
1100.0,0.3859
1101.0,0.3893
1102.0,0.3745
1103.0,0.3728
1104.0,0.3731
1105.0,0.4018
1106.0,0.3243
1107.0,0.3849
1108.0,0.3366
1109.0,0.3352
1110.0,0.3827
1111.0,0.2737
1112.0,0.3318
1113.0,0.2261
1114.0,0.2508
1115.0,0.2084
1116.0,0.1758
1117.0,0.07566
1118.0,0.1875
1119.0,0.1016
1120.0,0.1279
1121.0,0.1643
1122.0,0.07667
1123.0,0.1154
1124.0,0.09749
1125.0,0.1251
1126.0,0.05119
1127.0,0.1405
1128.0,0.09216
1129.0,0.09642
1130.0,0.06738
1131.0,0.2476
1132.0,0.1978
1133.0,0.1353
1134.0,0.04123
1135.0,0.01518
1136.0,0.1164
1137.0,0.2459
1138.0,0.1757
1139.0,0.2438
1140.0,0.2107
1141.0,0.1669
1142.0,0.1881
1143.0,0.2595
1144.0,0.1003
1145.0,0.1301
1146.0,0.1405
1147.0,0.05753
1148.0,0.2248
1149.0,0.1852
1150.0,0.1075
1151.0,0.1745
1152.0,0.208
1153.0,0.1978
1154.0,0.1281
1155.0,0.2546
1156.0,0.2327
1157.0,0.2562
1158.0,0.2532
1159.0,0.2684
1160.0,0.2352
1161.0,0.2793
1162.0,0.2814
1163.0,0.3627
1164.0,0.3176
1165.0,0.3054
1166.0,0.2994
1167.0,0.3228
1168.0,0.3275
1169.0,0.333
1170.0,0.3569
1171.0,0.3489
1172.0,0.3524
1173.0,0.3561
1174.0,0.2684
1175.0,0.3459
1176.0,0.3736
1177.0,0.3629
1178.0,0.2833
1179.0,0.3764
1180.0,0.3433
1181.0,0.3535
1182.0,0.2556
1183.0,0.3464
1184.0,0.3285
1185.0,0.3203
1186.0,0.3686
1187.0,0.3545
1188.0,0.2608
1189.0,0.3311
1190.0,0.3602
1191.0,0.3477
1192.0,0.3645
1193.0,0.3514
1194.0,0.3608
1195.0,0.3452
1196.0,0.3351
1197.0,0.3587
1198.0,0.3315
1199.0,0.2913
1200.0,0.3474
1201.0,0.3382
1202.0,0.3344
1203.0,0.3317
1204.0,0.2955
1205.0,0.3394
1206.0,0.3696
1207.0,0.3344
1208.0,0.3264
1209.0,0.3324
1210.0,0.3441
1211.0,0.3314
1212.0,0.3312
1213.0,0.3594
1214.0,0.3372
1215.0,0.3318
1216.0,0.3581
1217.0,0.3505
1218.0,0.3554
1219.0,0.3518
1220.0,0.3555
1221.0,0.358
1222.0,0.3499
1223.0,0.3473
1224.0,0.3464
1225.0,0.3558
1226.0,0.3571
1227.0,0.334
1228.0,0.3579
1229.0,0.3571
1230.0,0.3519
1231.0,0.359
1232.0,0.357
1233.0,0.3483
1234.0,0.3579
1235.0,0.3562
1236.0,0.3584
1237.0,0.3548
1238.0,0.3571
1239.0,0.3526
1240.0,0.3538
1241.0,0.353
1242.0,0.3514
1243.0,0.3485
1244.0,0.3513
1245.0,0.3526
1246.0,0.3505
1247.0,0.3494
1248.0,0.3496
1249.0,0.3503
1250.0,0.3484
1251.0,0.3445
1252.0,0.3439
1253.0,0.3424
1254.0,0.3399
1255.0,0.3438
1256.0,0.3365
1257.0,0.3351
1258.0,0.3395
1259.0,0.3308
1260.0,0.3321
1261.0,0.318
1262.0,0.3109
1263.0,0.3117
1264.0,0.2934
1265.0,0.3095
1266.0,0.3012
1267.0,0.3042
1268.0,0.2922
1269.0,0.2074
1270.0,0.304
1271.0,0.3164
1272.0,0.3169
1273.0,0.3141
1274.0,0.3144
1275.0,0.3181
1276.0,0.3203
1277.0,0.3214
1278.0,0.3257
1279.0,0.3229
1280.0,0.3187
1281.0,0.3033
1282.0,0.2908
1283.0,0.3135
1284.0,0.3213
1285.0,0.3232
1286.0,0.3267
1287.0,0.3232
1288.0,0.3227
1289.0,0.3153
1290.0,0.3196
1291.0,0.3236
1292.0,0.3093
1293.0,0.3186
1294.0,0.3167
1295.0,0.3164
1296.0,0.3056
1297.0,0.2919
1298.0,0.3086
1299.0,0.3185
1300.0,0.2793
1301.0,0.2859
1302.0,0.3074
1303.0,0.2746
1304.0,0.2434
1305.0,0.3019
1306.0,0.3024
1307.0,0.2455
1308.0,0.2736
1309.0,0.3008
1310.0,0.2412
1311.0,0.2643
1312.0,0.2587
1313.0,0.2551
1314.0,0.2317
1315.0,0.2307
1316.0,0.2617
1317.0,0.2489
1318.0,0.2668
1319.0,0.2196
1320.0,0.2103
1321.0,0.2412
1322.0,0.2451
1323.0,0.1938
1324.0,0.2153
1325.0,0.2584
1326.0,0.2277
1327.0,0.2186
1328.0,0.1915
1329.0,0.1517
1330.0,0.1934
1331.0,0.1267
1332.0,0.1274
1333.0,0.1745
1334.0,0.144
1335.0,0.1928
1336.0,0.1574
1337.0,0.1423
1338.0,0.1535
1339.0,0.1516
1340.0,0.145
1341.0,0.1471
1342.0,0.1542
1343.0,0.1169
1344.0,0.06984
1345.0,0.09898
1346.0,0.0581
1347.0,0.06055
1348.0,0.006057
1349.0,0.01905
1350.0,0.01804
1351.0,0.006419
1352.0,0.002527
1353.0,0.0002074
1354.0,0.0005381
1355.0,1.089e-05
1356.0,0.0001058
1357.0,0.0001582
1358.0,1.243e-05
1359.0,3.029e-06
1360.0,7.201e-06
1361.0,3.437e-08
1362.0,1.857e-10
1363.0,1.119e-05
1364.0,5.092e-06
1365.0,1.367e-10
1366.0,4.074e-05
1367.0,1.572e-05
1368.0,4.751e-12
1369.0,2.011e-06
1370.0,1.305e-06
1371.0,1.086e-07
1372.0,8.745e-06
1373.0,0.000109
1374.0,0.0003691
1375.0,0.0006562
1376.0,0.0004773
1377.0,0.0002369
1378.0,0.00193
1379.0,0.0001021
1380.0,0.0001745
1381.0,5.789e-06
1382.0,8.504e-06
1383.0,1.751e-07
1384.0,2.516e-06
1385.0,5.994e-06
1386.0,9.091e-06
1387.0,0.0004447
1388.0,9.778e-06
1389.0,0.001094
1390.0,0.0009331
1391.0,0.0006799
1392.0,5.156e-05
1393.0,0.0002268
1394.0,0.0001875
1395.0,2.133e-06
1396.0,4.113e-08
1397.0,0.0001032
1398.0,0.002212
1399.0,0.001412
1400.0,2.549e-08
1401.0,6.446e-08
1402.0,0.002642
1403.0,0.003552
1404.0,0.001121
1405.0,1.32e-06
1406.0,0.003255
1407.0,0.0002797
1408.0,0.002622
1409.0,0.001107
1410.0,0.0007944
1411.0,0.003089
1412.0,0.003737
1413.0,0.02683
1414.0,0.0006127
1415.0,0.0003309
1416.0,0.03698
1417.0,0.01392
1418.0,0.01587
1419.0,0.002618
1420.0,0.00984
1421.0,0.01093
1422.0,0.04735
1423.0,0.009983
1424.0,0.01805
1425.0,0.02731
1426.0,0.02875
1427.0,0.04749
1428.0,0.005859
1429.0,0.03778
1430.0,0.05887
1431.0,0.06328
1432.0,0.004702
1433.0,0.04229
1434.0,0.02255
1435.0,0.02604
1436.0,0.04455
1437.0,0.03425
1438.0,0.01608
1439.0,0.05804
1440.0,0.04389
1441.0,0.03606
1442.0,0.03928
1443.0,0.04537
1444.0,0.06134
1445.0,0.05105
1446.0,0.02394
1447.0,0.03775
1448.0,0.1048
1449.0,0.09414
1450.0,0.02792
1451.0,0.01209
1452.0,0.05959
1453.0,0.07634
1454.0,0.1205
1455.0,0.06079
1456.0,0.08334
1457.0,0.1054
1458.0,0.1183
1459.0,0.1407
