interpolation:linear
wavelength,value
280.0,1.2080000000000002e-20
280.5,3.602e-19
281.0,1.87e-18
281.5,4.385e-19
282.0,1.526e-18
282.5,4.117e-18
283.0,1.341e-17
283.5,2.197e-17
284.0,3.489e-16
284.5,9.929e-16
285.0,1.88e-15
285.5,1.016e-14
286.0,4.17e-14
286.5,1.895e-13
287.0,5.433e-13
287.5,2.071e-12
288.0,5.557e-12
288.5,2.04e-11
289.0,6.319e-11
289.5,2.172e-10
290.0,6.598e-10
290.5,1.442e-09
291.0,3.34e-09
291.5,1.049e-08
292.0,2.654e-08
292.5,4.208e-08
293.0,1.059e-07
293.5,3.235e-07
294.0,5.999e-07
294.5,8.036e-07
295.0,1.615e-06
295.5,4.358e-06
296.0,8.586e-06
296.5,1.227e-05
297.0,1.689e-05
297.5,4.651e-05
298.0,7.497e-05
298.5,7.679e-05
299.0,0.0001724
299.5,0.000295
300.0,0.0003307
300.5,0.0004888
301.0,0.0009164
301.5,0.001517
302.0,0.001328
302.5,0.002557
303.0,0.004502
303.5,0.005594
304.0,0.005204
304.5,0.007559
305.0,0.01103
305.5,0.01233
306.0,0.01182
306.5,0.01449
307.0,0.02075
307.5,0.02668
308.0,0.02803
308.5,0.03255
309.0,0.0317
309.5,0.03544
310.0,0.03523
310.5,0.05675
311.0,0.07059
311.5,0.06788
312.0,0.06653
312.5,0.07989
313.0,0.08604
313.5,0.08411
314.0,0.1035
314.5,0.08978
315.0,0.1175
315.5,0.09937
316.0,0.08526
316.5,0.1206
317.0,0.1497
317.5,0.1565
318.0,0.1208
318.5,0.147
319.0,0.1726
319.5,0.1431
320.0,0.1733
320.5,0.2124
321.0,0.1856
321.5,0.1776
322.0,0.1932
322.5,0.1679
323.0,0.165
323.5,0.2003
324.0,0.2333
324.5,0.2382
325.0,0.2072
325.5,0.2636
326.0,0.3213
326.5,0.3195
327.0,0.3193
327.5,0.3094
328.0,0.2782
328.5,0.289
329.0,0.3428
329.5,0.388
330.0,0.3923
330.5,0.3163
331.0,0.3231
331.5,0.3266
332.0,0.3501
332.5,0.3451
333.0,0.3448
333.5,0.3139
334.0,0.3219
334.5,0.369
335.0,0.3455
335.5,0.4035
336.0,0.2792
336.5,0.3276
337.0,0.2695
337.5,0.3356
338.0,0.3259
338.5,0.3761
339.0,0.3722
339.5,0.3581
340.0,0.4209
340.5,0.3792
341.0,0.3699
341.5,0.3396
342.0,0.4058
342.5,0.3796
343.0,0.4176
343.5,0.3933
344.0,0.2907
344.5,0.2936
345.0,0.3885
345.5,0.3966
346.0,0.3371
346.5,0.3817
347.0,0.4098
347.5,0.3314
348.0,0.3778
348.5,0.3776
349.0,0.3503
349.5,0.3468
350.0,0.429
350.5,0.4525
351.0,0.4043
351.5,0.3931
352.0,0.4221
352.5,0.3294
353.0,0.4149
353.5,0.4437
354.0,0.4606
354.5,0.4672
355.0,0.4657
355.5,0.4207
356.0,0.4402
356.5,0.3759
357.0,0.3106
357.5,0.3803
358.0,0.3014
358.5,0.2576
359.0,0.3603
359.5,0.4592
360.0,0.4869
360.5,0.3892
361.0,0.3548
361.5,0.4085
362.0,0.3533
362.5,0.489
363.0,0.4392
363.5,0.4046
364.0,0.4949
364.5,0.423
365.0,0.4309
365.5,0.5409
366.0,0.5731
366.5,0.5385
367.0,0.5245
367.5,0.5443
368.0,0.4764
368.5,0.4808
369.0,0.5192
369.5,0.5535
370.0,0.5901
370.5,0.458
371.0,0.4895
371.5,0.6124
372.0,0.4065
372.5,0.4875
373.0,0.4959
373.5,0.3227
374.0,0.469
374.5,0.3884
375.0,0.3776
375.5,0.5638
376.0,0.4674
376.5,0.4845
377.0,0.513
377.5,0.6002
378.0,0.6507
378.5,0.6151
379.0,0.5077
379.5,0.4638
380.0,0.4822
380.5,0.5841
381.0,0.5854
381.5,0.4641
382.0,0.4122
382.5,0.3514
383.0,0.3254
383.5,0.3135
384.0,0.3458
384.5,0.5087
385.0,0.5045
385.5,0.4699
386.0,0.4025
386.5,0.5288
387.0,0.4394
387.5,0.4936
388.0,0.4558
388.5,0.4506
389.0,0.4865
389.5,0.5893
390.0,0.5914
390.5,0.5444
391.0,0.6408
391.5,0.6537
392.0,0.5507
392.5,0.493
393.0,0.2744
393.5,0.1995
394.0,0.4059
394.5,0.5161
395.0,0.6299
395.5,0.6399
396.0,0.5549
396.5,0.3244
397.0,0.2435
397.5,0.4952
398.0,0.6935
398.5,0.7169
399.0,0.7764
399.5,0.7739
400.0,0.8037
401.0,0.8159
402.0,0.8609
403.0,0.818
404.0,0.8055
405.0,0.8055
406.0,0.7925
407.0,0.7798
408.0,0.8104
409.0,0.8675
410.0,0.7581
411.0,0.8212
412.0,0.8821
413.0,0.8604
414.0,0.871
415.0,0.8734
416.0,0.8887
417.0,0.867
418.0,0.851
419.0,0.8623
420.0,0.8586
421.0,0.8983
422.0,0.8539
423.0,0.8342
424.0,0.8824
425.0,0.8808
426.0,0.858
427.0,0.842
428.0,0.8203
429.0,0.777
430.0,0.6801
431.0,0.6741
432.0,0.8704
433.0,0.8753
434.0,0.8128
435.0,0.8489
436.0,0.9565
437.0,0.9436
438.0,0.8593
439.0,0.8889
440.0,0.9172
441.0,0.9505
442.0,1.019
443.0,0.993
444.0,1.015
445.0,0.9927
446.0,0.9473
447.0,1.024
448.0,1.04
449.0,1.044
450.0,1.073
451.0,1.113
452.0,1.073
453.0,1.009
454.0,1.053
455.0,1.06
456.0,1.085
457.0,1.103
458.0,1.065
459.0,1.06
460.0,1.063
461.0,1.087
462.0,1.096
463.0,1.088
464.0,1.07
465.0,1.056
466.0,1.066
467.0,1.047
468.0,1.059
469.0,1.065
470.0,1.031
471.0,1.03
472.0,1.085
473.0,1.071
474.0,1.073
475.0,1.082
476.0,1.05
477.0,1.053
478.0,1.082
479.0,1.075
480.0,1.077
481.0,1.097
482.0,1.103
483.0,1.089
484.0,1.067
485.0,1.016
486.0,0.8885
487.0,0.9311
488.0,1.021
489.0,1.025
490.0,1.078
491.0,1.059
492.0,1.0
493.0,1.033
494.0,1.043
495.0,1.052
496.0,1.059
497.0,1.075
498.0,1.025
499.0,1.038
500.0,1.008
501.0,0.9896
502.0,0.9759
503.0,1.016
504.0,0.9907
505.0,1.026
506.0,1.059
507.0,1.007
508.0,0.9759
509.0,1.003
510.0,0.9977
511.0,1.024
512.0,1.035
513.0,0.9799
514.0,0.9732
515.0,0.9635
516.0,0.9612
517.0,0.854
518.0,0.8979
519.0,0.9418
520.0,0.976
521.0,0.9853
522.0,0.9862
523.0,0.9685
524.0,1.003
525.0,1.015
526.0,0.9699
527.0,0.9141
528.0,0.9669
529.0,1.019
530.0,1.005
531.0,1.02
532.0,0.9846
533.0,0.9557
534.0,0.984
535.0,1.005
536.0,1.015
537.0,0.9744
538.0,0.9916
539.0,0.9833
540.0,0.9428
541.0,0.9492
542.0,0.979
543.0,0.9686
544.0,0.9855
545.0,0.9824
546.0,0.9869
547.0,0.9863
548.0,0.9745
549.0,0.9774
550.0,0.989
551.0,0.9769
552.0,0.9837
553.0,0.9661
554.0,0.9893
555.0,0.9913
556.0,0.9784
557.0,0.9481
558.0,0.941
559.0,0.9236
560.0,0.9352
561.0,0.9473
562.0,0.9406
563.0,0.9664
564.0,0.9402
565.0,0.9322
566.0,0.9186
567.0,0.9361
568.0,0.928
569.0,0.9065
570.0,0.9062
571.0,0.9006
572.0,0.9226
573.0,0.9325
574.0,0.9296
575.0,0.9124
576.0,0.904
577.0,0.9138
578.0,0.9
579.0,0.9033
580.0,0.9201
581.0,0.9245
582.0,0.9417
583.0,0.9438
584.0,0.9519
585.0,0.9286
586.0,0.9095
587.0,0.9296
588.0,0.9077
589.0,0.8055
590.0,0.8422
591.0,0.8905
592.0,0.8797
593.0,0.8921
594.0,0.8862
595.0,0.8648
596.0,0.8978
597.0,0.8883
598.0,0.8857
599.0,0.8863
600.0,0.8874
601.0,0.8799
602.0,0.8739
603.0,0.8883
604.0,0.9029
605.0,0.8982
606.0,0.8944
607.0,0.9031
608.0,0.893
609.0,0.8945
610.0,0.888
611.0,0.8925
612.0,0.8899
613.0,0.8786
614.0,0.8665
615.0,0.8853
616.0,0.8561
617.0,0.8543
618.0,0.8871
619.0,0.8781
620.0,0.8837
621.0,0.8846
622.0,0.8743
623.0,0.8611
624.0,0.8463
625.0,0.8444
626.0,0.8569
627.0,0.8667
628.0,0.8122
629.0,0.8471
630.0,0.8277
631.0,0.8455
632.0,0.8352
633.0,0.8602
634.0,0.8515
635.0,0.8646
636.0,0.853
637.0,0.8669
638.0,0.875
639.0,0.8651
640.0,0.8565
641.0,0.8559
642.0,0.8519
643.0,0.8634
644.0,0.8605
645.0,0.8619
646.0,0.8421
647.0,0.8329
648.0,0.8337
649.0,0.8176
650.0,0.8206
651.0,0.856
652.0,0.8214
653.0,0.8446
654.0,0.8351
655.0,0.8046
656.0,0.7127
657.0,0.7318
658.0,0.8199
659.0,0.8256
660.0,0.829
661.0,0.8348
662.0,0.8367
663.0,0.8201
664.0,0.8295
665.0,0.83
666.0,0.8305
667.0,0.8296
668.0,0.8299
669.0,0.8427
670.0,0.839
671.0,0.8387
672.0,0.8315
673.0,0.844
674.0,0.8408
675.0,0.8331
676.0,0.8388
677.0,0.8304
678.0,0.8328
679.0,0.8193
680.0,0.8258
681.0,0.8204
682.0,0.8193
683.0,0.8177
684.0,0.8137
685.0,0.8206
686.0,0.8157
687.0,0.5534
688.0,0.643
689.0,0.6451
690.0,0.6747
691.0,0.708
692.0,0.7321
693.0,0.7263
694.0,0.7202
695.0,0.7486
696.0,0.7496
697.0,0.7937
698.0,0.7814
699.0,0.7639
700.0,0.7547
701.0,0.7474
702.0,0.7521
703.0,0.7535
704.0,0.7769
705.0,0.7781
706.0,0.7771
707.0,0.7776
708.0,0.7793
709.0,0.78
710.0,0.7802
711.0,0.779
712.0,0.7764
713.0,0.7688
714.0,0.7716
715.0,0.7477
716.0,0.7483
717.0,0.6533
718.0,0.6007
719.0,0.5507
720.0,0.5772
721.0,0.6345
722.0,0.7231
723.0,0.6746
724.0,0.6095
725.0,0.6003
726.0,0.6282
727.0,0.6361
728.0,0.599
729.0,0.6199
730.0,0.656
731.0,0.6281
732.0,0.6702
733.0,0.7079
734.0,0.7242
735.0,0.7095
736.0,0.7086
737.0,0.7114
738.0,0.7213
739.0,0.7071
740.0,0.7252
741.0,0.7178
742.0,0.7183
743.0,0.7366
744.0,0.7343
745.0,0.7344
746.0,0.7377
747.0,0.7393
748.0,0.7378
749.0,0.7294
750.0,0.7289
751.0,0.7215
752.0,0.7246
753.0,0.7283
754.0,0.7299
755.0,0.7258
756.0,0.7255
757.0,0.7265
758.0,0.7175
759.0,0.7035
760.0,0.1273
761.0,0.06866
762.0,0.3707
763.0,0.1909
764.0,0.282
765.0,0.3708
766.0,0.4503
767.0,0.5633
768.0,0.6462
769.0,0.6589
770.0,0.6804
771.0,0.6854
772.0,0.6867
773.0,0.6915
774.0,0.6881
775.0,0.6829
776.0,0.6912
777.0,0.6821
778.0,0.6779
779.0,0.6785
780.0,0.6747
781.0,0.6754
782.0,0.6796
783.0,0.6677
784.0,0.6709
785.0,0.666
786.0,0.6734
787.0,0.662
788.0,0.654
789.0,0.6538
790.0,0.637
791.0,0.6419
792.0,0.6371
793.0,0.6269
794.0,0.637
795.0,0.6479
796.0,0.6288
797.0,0.6296
798.0,0.6472
799.0,0.6432
800.0,0.6323
801.0,0.6305
802.0,0.6286
803.0,0.624
804.0,0.6247
805.0,0.6225
806.0,0.6396
807.0,0.632
808.0,0.6325
809.0,0.6209
810.0,0.6161
811.0,0.6173
812.0,0.6002
813.0,0.588
814.0,0.5192
815.0,0.5159
816.0,0.4804
817.0,0.489
818.0,0.4711
819.0,0.5251
820.0,0.4952
821.0,0.5766
822.0,0.5605
823.0,0.3846
824.0,0.5449
825.0,0.5667
826.0,0.5458
827.0,0.5753
828.0,0.4897
829.0,0.5424
830.0,0.5355
831.0,0.5373
832.0,0.5212
833.0,0.5535
834.0,0.5345
835.0,0.5859
836.0,0.5616
837.0,0.5875
838.0,0.5696
839.0,0.5785
840.0,0.5911
841.0,0.5829
842.0,0.5839
843.0,0.5834
844.0,0.5754
845.0,0.5946
846.0,0.592
847.0,0.5809
848.0,0.5774
849.0,0.561
850.0,0.5374
851.0,0.5691
852.0,0.5651
853.0,0.5439
854.0,0.4696
855.0,0.5159
856.0,0.5638
857.0,0.5763
858.0,0.5721
859.0,0.5726
860.0,0.5736
861.0,0.5704
862.0,0.5794
863.0,0.5931
864.0,0.5634
865.0,0.5585
866.0,0.5022
867.0,0.524
868.0,0.5703
869.0,0.5584
870.0,0.5743
871.0,0.5665
872.0,0.5645
873.0,0.5634
874.0,0.5567
875.0,0.5454
876.0,0.5511
877.0,0.5566
878.0,0.5627
879.0,0.554
880.0,0.5422
881.0,0.5341
882.0,0.5456
883.0,0.5473
884.0,0.5448
885.0,0.5489
886.0,0.5233
887.0,0.5287
888.0,0.5366
889.0,0.5426
890.0,0.5381
891.0,0.5372
892.0,0.5218
893.0,0.5056
894.0,0.4881
895.0,0.4616
896.0,0.435
897.0,0.3741
898.0,0.408
899.0,0.3108
900.0,0.4174
901.0,0.3258
902.0,0.3816
903.0,0.3856
904.0,0.4844
905.0,0.4679
906.0,0.438
907.0,0.3565
908.0,0.3635
909.0,0.3935
910.0,0.3485
911.0,0.3711
912.0,0.3879
913.0,0.3537
914.0,0.3506
915.0,0.38
916.0,0.3218
917.0,0.4079
918.0,0.3299
919.0,0.4152
920.0,0.4192
921.0,0.4359
922.0,0.39
923.0,0.4211
924.0,0.3997
925.0,0.3911
926.0,0.3953
927.0,0.4423
928.0,0.3251
929.0,0.2969
930.0,0.2334
931.0,0.2211
932.0,0.1592
933.0,0.1294
934.0,0.07089
935.0,0.1324
936.0,0.08264
937.0,0.08375
938.0,0.103
939.0,0.2142
940.0,0.2577
941.0,0.1945
942.0,0.2252
943.0,0.148
944.0,0.156
945.0,0.2005
946.0,0.1019
947.0,0.2014
948.0,0.1479
949.0,0.2698
950.0,0.07466
951.0,0.2657
952.0,0.1425
953.0,0.1842
954.0,0.226
955.0,0.1863
956.0,0.181
957.0,0.1427
958.0,0.2567
959.0,0.2037
960.0,0.2283
961.0,0.2565
962.0,0.2426
963.0,0.2799
964.0,0.2564
965.0,0.2789
966.0,0.2789
967.0,0.2777
968.0,0.3729
969.0,0.3895
970.0,0.3576
971.0,0.4096
972.0,0.3917
973.0,0.3408
974.0,0.3234
975.0,0.3358
976.0,0.3187
977.0,0.363
978.0,0.3447
979.0,0.3612
980.0,0.3395
981.0,0.4072
982.0,0.3893
983.0,0.3736
984.0,0.4197
985.0,0.3878
986.0,0.4271
987.0,0.4187
988.0,0.418
989.0,0.4259
990.0,0.4154
991.0,0.4272
992.0,0.4296
993.0,0.42
994.0,0.4295
995.0,0.429
996.0,0.4271
997.0,0.4277
998.0,0.4257
999.0,0.4241
1000.0,0.4211
1001.0,0.4264
1002.0,0.4146
1003.0,0.4189
1004.0,0.4086
1005.0,0.3937
1006.0,0.409
1007.0,0.4177
1008.0,0.4154
1009.0,0.4132
1010.0,0.4114
1011.0,0.4156
1012.0,0.412
1013.0,0.4146
1014.0,0.4117
1015.0,0.409
1016.0,0.4071
1017.0,0.4081
1018.0,0.4066
1019.0,0.3979
1020.0,0.4045
1021.0,0.4039
1022.0,0.4008
1023.0,0.405
1024.0,0.3997
1025.0,0.4048
1026.0,0.403
1027.0,0.4021
1028.0,0.4012
1029.0,0.3965
1030.0,0.3992
1031.0,0.3976
1032.0,0.3965
1033.0,0.3905
1034.0,0.3905
1035.0,0.3917
1036.0,0.3938
1037.0,0.3874
1038.0,0.3891
1039.0,0.3888
1040.0,0.3873
1041.0,0.3888
1042.0,0.3861
1043.0,0.3849
1044.0,0.3862
1045.0,0.381
1046.0,0.3768
1047.0,0.3801
1048.0,0.3822
1049.0,0.3808
1050.0,0.3791
1051.0,0.3786
1052.0,0.377
1053.0,0.374
1054.0,0.3748
1055.0,0.375
1056.0,0.3737
1057.0,0.3725
1058.0,0.3634
1059.0,0.3637
1060.0,0.3632
1061.0,0.3627
1062.0,0.3646
1063.0,0.361
1064.0,0.3653
1065.0,0.3627
1066.0,0.3555
1067.0,0.3601
1068.0,0.3522
1069.0,0.3413
1070.0,0.3529
1071.0,0.3585
1072.0,0.3543
1073.0,0.3492
1074.0,0.3583
1075.0,0.3402
1076.0,0.358
1077.0,0.3515
1078.0,0.3448
1079.0,0.3523
1080.0,0.3461
1081.0,0.3349
1082.0,0.3404
1083.0,0.3415
1084.0,0.334
1085.0,0.3469
1086.0,0.3163
1087.0,0.3267
1088.0,0.3411
1089.0,0.3305
1090.0,0.3232
1091.0,0.3399
1092.0,0.3391
1093.0,0.2872
1094.0,0.3102
1095.0,0.2993
1096.0,0.2864
1097.0,0.3312
1098.0,0.2819
1099.0,0.2941
1100.0,0.2733
1101.0,0.2767
1102.0,0.2642
1103.0,0.2616
1104.0,0.2619
1105.0,0.2874
1106.0,0.2193
1107.0,0.2728
1108.0,0.2309
1109.0,0.2314
1110.0,0.2704
1111.0,0.1829
1112.0,0.2297
1113.0,0.1457
1114.0,0.1629
1115.0,0.135
1116.0,0.1074
1117.0,0.03907
1118.0,0.117
1119.0,0.05774
1120.0,0.07266
1121.0,0.09665
1122.0,0.04037
1123.0,0.06568
1124.0,0.05543
1125.0,0.0724
1126.0,0.02489
1127.0,0.08169
1128.0,0.04853
1129.0,0.05155
1130.0,0.03378
1131.0,0.1558
1132.0,0.122
1133.0,0.07689
1134.0,0.01938
1135.0,0.007278
1136.0,0.06398
1137.0,0.1529
1138.0,0.1076
1139.0,0.1613
1140.0,0.1344
1141.0,0.1022
1142.0,0.1178
1143.0,0.1676
1144.0,0.05813
1145.0,0.07417
1146.0,0.07999
1147.0,0.0278
1148.0,0.145
1149.0,0.1156
1150.0,0.06257
1151.0,0.1067
1152.0,0.1317
1153.0,0.1286
1154.0,0.07183
1155.0,0.1682
1156.0,0.1513
1157.0,0.17
1158.0,0.1682
1159.0,0.1816
1160.0,0.155
1161.0,0.1912
1162.0,0.1922
1163.0,0.2597
1164.0,0.2227
1165.0,0.2101
1166.0,0.2086
1167.0,0.2272
1168.0,0.2297
1169.0,0.2352
1170.0,0.2555
1171.0,0.2492
1172.0,0.2536
1173.0,0.255
1174.0,0.1824
1175.0,0.2491
1176.0,0.2736
1177.0,0.2628
1178.0,0.1977
1179.0,0.2758
1180.0,0.2464
1181.0,0.2543
1182.0,0.1758
1183.0,0.2503
1184.0,0.2347
1185.0,0.2266
1186.0,0.2682
1187.0,0.2556
1188.0,0.1789
1189.0,0.2382
1190.0,0.2621
1191.0,0.2492
1192.0,0.2658
1193.0,0.2548
1194.0,0.2625
1195.0,0.2485
1196.0,0.2395
1197.0,0.2625
1198.0,0.2404
1199.0,0.205
1200.0,0.2516
1201.0,0.2428
1202.0,0.2413
1203.0,0.2393
1204.0,0.2096
1205.0,0.2468
1206.0,0.2722
1207.0,0.2407
1208.0,0.2368
1209.0,0.2416
1210.0,0.2516
1211.0,0.2398
1212.0,0.2372
1213.0,0.2634
1214.0,0.2428
1215.0,0.2382
1216.0,0.2626
1217.0,0.2558
1218.0,0.2605
1219.0,0.2573
1220.0,0.2607
1221.0,0.2632
1222.0,0.2565
1223.0,0.2541
1224.0,0.2527
1225.0,0.2615
1226.0,0.2632
1227.0,0.2432
1228.0,0.2645
1229.0,0.2632
1230.0,0.2588
1231.0,0.2659
1232.0,0.2644
1233.0,0.2556
1234.0,0.2657
1235.0,0.264
1236.0,0.2659
1237.0,0.2623
1238.0,0.265
1239.0,0.2616
1240.0,0.2626
1241.0,0.2614
1242.0,0.2608
1243.0,0.2587
1244.0,0.2605
1245.0,0.2616
1246.0,0.2601
1247.0,0.2591
1248.0,0.259
1249.0,0.2597
1250.0,0.2582
1251.0,0.2549
1252.0,0.2549
1253.0,0.253
1254.0,0.2505
1255.0,0.2547
1256.0,0.2477
1257.0,0.2464
1258.0,0.2509
1259.0,0.2421
1260.0,0.2433
1261.0,0.23
1262.0,0.2233
1263.0,0.2237
1264.0,0.2069
1265.0,0.2223
1266.0,0.2141
1267.0,0.2177
1268.0,0.2068
1269.0,0.1301
1270.0,0.217
1271.0,0.2292
1272.0,0.2299
1273.0,0.2275
1274.0,0.2282
1275.0,0.2314
1276.0,0.2336
1277.0,0.235
1278.0,0.2394
1279.0,0.2373
1280.0,0.2343
1281.0,0.2235
1282.0,0.2152
1283.0,0.2318
1284.0,0.2373
1285.0,0.2389
1286.0,0.2421
1287.0,0.2384
1288.0,0.2384
1289.0,0.231
1290.0,0.2362
1291.0,0.2395
1292.0,0.2254
1293.0,0.2349
1294.0,0.2333
1295.0,0.2323
1296.0,0.222
1297.0,0.2102
1298.0,0.2259
1299.0,0.2352
1300.0,0.1998
1301.0,0.2058
1302.0,0.2251
1303.0,0.1971
1304.0,0.1687
1305.0,0.2205
1306.0,0.2206
1307.0,0.1721
1308.0,0.1973
1309.0,0.219
1310.0,0.1689
1311.0,0.1893
1312.0,0.1842
1313.0,0.1808
1314.0,0.162
1315.0,0.16
1316.0,0.1864
1317.0,0.1766
1318.0,0.1917
1319.0,0.1505
1320.0,0.1457
1321.0,0.1695
1322.0,0.1712
1323.0,0.1293
1324.0,0.1476
1325.0,0.1837
1326.0,0.158
1327.0,0.1507
1328.0,0.1301
1329.0,0.098
1330.0,0.1274
1331.0,0.07718
1332.0,0.07962
1333.0,0.1108
1334.0,0.0937
1335.0,0.1288
1336.0,0.102
1337.0,0.09023
1338.0,0.09765
1339.0,0.09719
1340.0,0.09447
1341.0,0.09237
1342.0,0.09702
1343.0,0.06589
1344.0,0.03944
1345.0,0.05688
1346.0,0.02835
1347.0,0.02884
1348.0,0.001897
1349.0,0.006791
1350.0,0.007036
1351.0,0.001733
1352.0,0.0004755
1353.0,2.471e-05
1354.0,8.418e-05
1355.0,7.06e-07
1356.0,1.209e-05
1357.0,1.842e-05
1358.0,8.349e-07
1359.0,1.085e-07
1360.0,3.862e-07
1361.0,4.602e-10
1362.0,1.295e-12
1363.0,5.285e-07
1364.0,2.191e-07
1365.0,4.715e-13
1366.0,2.293e-06
1367.0,9.34e-07
1368.0,3.919e-15
1369.0,8.207e-08
1370.0,4.102e-08
1371.0,2.367e-09
1372.0,5.139e-07
1373.0,1.019e-05
1374.0,4.676e-05
1375.0,8.51e-05
1376.0,7.571e-05
1377.0,3.478e-05
1378.0,0.0003391
1379.0,1.462e-05
1380.0,2.125e-05
1381.0,5.595e-07
1382.0,4.653e-07
1383.0,7.052e-09
1384.0,9.332e-08
1385.0,4.34e-07
1386.0,4.185e-07
1387.0,4.895e-05
1388.0,9.66e-07
1389.0,0.0001638
1390.0,0.000141
1391.0,9.433e-05
1392.0,6.16e-06
1393.0,3.249e-05
1394.0,1.716e-05
1395.0,1.28e-07
1396.0,6.578e-10
1397.0,1.301e-05
1398.0,0.0003815
1399.0,0.000242
1400.0,2.891e-10
1401.0,1.177e-09
1402.0,0.0006638
1403.0,0.0008367
1404.0,0.0002553
1405.0,6.302e-08
1406.0,0.0006675
1407.0,5.875e-05
1408.0,0.0005457
1409.0,0.0001843
1410.0,0.000147
1411.0,0.0007355
1412.0,0.0009902
1413.0,0.01019
1414.0,0.0001159
1415.0,5.577e-05
1416.0,0.01683
1417.0,0.00503
1418.0,0.005721
1419.0,0.0008849
1420.0,0.003498
1421.0,0.003783
1422.0,0.02199
1423.0,0.004241
1424.0,0.007971
1425.0,0.0117
1426.0,0.01337
1427.0,0.02483
1428.0,0.001783
1429.0,0.01844
1430.0,0.03177
1431.0,0.03499
1432.0,0.001402
1433.0,0.02212
1434.0,0.01118
1435.0,0.01095
1436.0,0.0215
1437.0,0.01648
1438.0,0.006855
1439.0,0.0294
1440.0,0.02201
1441.0,0.01657
1442.0,0.01841
1443.0,0.02344
