interpolation:linear
wavelength,value
280.0,7.341e-21
280.5,2.232e-19
281.0,1.166e-18
281.5,5.02e-19
282.0,1.454e-18
282.5,3.797e-18
283.0,1.217e-17
283.5,1.984e-17
284.0,3.139e-16
284.5,8.952e-16
285.0,1.804e-15
285.5,9.348e-15
286.0,3.793e-14
286.5,1.7e-13
287.0,4.842e-13
287.5,1.837e-12
288.0,4.796e-12
288.5,1.689e-11
289.0,5.032e-11
289.5,1.663e-10
290.0,4.9e-10
290.5,1.044e-09
291.0,2.348e-09
291.5,7.274e-09
292.0,1.771e-08
292.5,2.772e-08
293.0,6.851e-08
293.5,2.039e-07
294.0,3.7e-07
294.5,4.888e-07
295.0,9.617e-07
295.5,2.629e-06
296.0,5.231e-06
296.5,7.556e-06
297.0,1.051e-05
297.5,2.941e-05
298.0,4.812e-05
298.5,4.989e-05
299.0,0.0001134
299.5,0.0001987
300.0,0.0002258
300.5,0.000339
301.0,0.0006533
301.5,0.001114
302.0,0.0009923
302.5,0.001927
303.0,0.003432
303.5,0.004295
304.0,0.004016
304.5,0.005909
305.0,0.008777
305.5,0.009918
306.0,0.00955
306.5,0.01179
307.0,0.01714
307.5,0.02234
308.0,0.02353
308.5,0.02751
309.0,0.0269
309.5,0.03035
310.0,0.03029
310.5,0.0489
311.0,0.06104
311.5,0.05879
312.0,0.05806
312.5,0.07007
313.0,0.07567
313.5,0.07379
314.0,0.09133
314.5,0.07989
315.0,0.1047
315.5,0.08821
316.0,0.07618
316.5,0.1083
317.0,0.1345
317.5,0.1404
318.0,0.1088
318.5,0.1333
319.0,0.1572
319.5,0.1295
320.0,0.1568
320.5,0.1936
321.0,0.1702
321.5,0.163
322.0,0.1761
322.5,0.1531
323.0,0.1512
323.5,0.1843
324.0,0.2148
324.5,0.2189
325.0,0.19
325.5,0.2426
326.0,0.2961
326.5,0.2951
327.0,0.2947
327.5,0.2853
328.0,0.2557
328.5,0.2667
329.0,0.3173
329.5,0.3595
330.0,0.3632
330.5,0.2922
331.0,0.2982
331.5,0.302
332.0,0.3246
332.5,0.3203
333.0,0.3198
333.5,0.2907
334.0,0.298
334.5,0.3423
335.0,0.3209
335.5,0.3748
336.0,0.2594
336.5,0.3042
337.0,0.25
337.5,0.3113
338.0,0.3028
338.5,0.3495
339.0,0.3459
339.5,0.3328
340.0,0.3912
340.5,0.3525
341.0,0.3439
341.5,0.3157
342.0,0.3773
342.5,0.353
343.0,0.3883
343.5,0.3658
344.0,0.2703
344.5,0.2731
345.0,0.3614
345.5,0.369
346.0,0.3136
346.5,0.3552
347.0,0.3814
347.5,0.3084
348.0,0.3516
348.5,0.3514
349.0,0.3261
349.5,0.3229
350.0,0.3994
350.5,0.4214
351.0,0.3765
351.5,0.366
352.0,0.3931
352.5,0.3068
353.0,0.3865
353.5,0.4133
354.0,0.4291
354.5,0.4352
355.0,0.4338
355.5,0.392
356.0,0.4102
356.5,0.3503
357.0,0.2895
357.5,0.3544
358.0,0.2809
358.5,0.2401
359.0,0.3358
359.5,0.428
360.0,0.4538
360.5,0.3628
361.0,0.3308
361.5,0.3809
362.0,0.3295
362.5,0.456
363.0,0.4097
363.5,0.3774
364.0,0.4617
364.5,0.3947
365.0,0.402
365.5,0.5046
366.0,0.5348
366.5,0.5025
367.0,0.4895
367.5,0.508
368.0,0.4447
368.5,0.4488
369.0,0.4847
369.5,0.5167
370.0,0.5509
370.5,0.4277
371.0,0.4571
371.5,0.5719
372.0,0.3796
372.5,0.4553
373.0,0.4632
373.5,0.3014
374.0,0.4381
374.5,0.3628
375.0,0.3528
375.5,0.5268
376.0,0.4367
376.5,0.4526
377.0,0.4793
377.5,0.5609
378.0,0.6081
378.5,0.5748
379.0,0.4744
379.5,0.4334
380.0,0.4507
380.5,0.546
381.0,0.5472
381.5,0.4339
382.0,0.3854
382.5,0.3286
383.0,0.3043
383.5,0.2931
384.0,0.3234
384.5,0.4757
385.0,0.4719
385.5,0.4395
386.0,0.3765
386.5,0.4947
387.0,0.4111
387.5,0.4618
388.0,0.4265
388.5,0.4216
389.0,0.4552
389.5,0.5514
390.0,0.5535
390.5,0.5095
391.0,0.5998
391.5,0.6119
392.0,0.5154
392.5,0.4615
393.0,0.2568
393.5,0.1867
394.0,0.38
394.5,0.4833
395.0,0.5898
395.5,0.5992
396.0,0.5196
396.5,0.3038
397.0,0.228
397.5,0.4638
398.0,0.6496
398.5,0.6715
399.0,0.7273
399.5,0.725
400.0,0.7529
401.0,0.764
402.0,0.8062
403.0,0.7661
404.0,0.7545
405.0,0.7545
406.0,0.7425
407.0,0.7307
408.0,0.7593
409.0,0.8129
410.0,0.7105
411.0,0.7697
412.0,0.8269
413.0,0.8065
414.0,0.8166
415.0,0.8189
416.0,0.8334
417.0,0.8131
418.0,0.7982
419.0,0.8088
420.0,0.8054
421.0,0.8427
422.0,0.8011
423.0,0.7827
424.0,0.8279
425.0,0.8266
426.0,0.8053
427.0,0.7903
428.0,0.77
429.0,0.7294
430.0,0.6385
431.0,0.6329
432.0,0.8173
433.0,0.8219
434.0,0.7633
435.0,0.7972
436.0,0.8984
437.0,0.8864
438.0,0.8073
439.0,0.835
440.0,0.8617
441.0,0.893
442.0,0.9578
443.0,0.933
444.0,0.9533
445.0,0.9328
446.0,0.8902
447.0,0.9625
448.0,0.9776
449.0,0.9815
450.0,1.009
451.0,1.047
452.0,1.008
453.0,0.9485
454.0,0.9902
455.0,0.9964
456.0,1.02
457.0,1.037
458.0,1.002
459.0,0.9967
460.0,0.9994
461.0,1.022
462.0,1.03
463.0,1.023
464.0,1.006
465.0,0.9937
466.0,1.003
467.0,0.9851
468.0,0.9967
469.0,1.002
470.0,0.9701
471.0,0.9688
472.0,1.021
473.0,1.008
474.0,1.009
475.0,1.018
476.0,0.9875
477.0,0.9903
478.0,1.018
479.0,1.012
480.0,1.014
481.0,1.032
482.0,1.038
483.0,1.025
484.0,1.004
485.0,0.9567
486.0,0.8364
487.0,0.8765
488.0,0.9616
489.0,0.9647
490.0,1.015
491.0,0.9974
492.0,0.9419
493.0,0.9727
494.0,0.9825
495.0,0.9908
496.0,0.997
497.0,1.012
498.0,0.9651
499.0,0.9775
500.0,0.949
501.0,0.9316
502.0,0.9186
503.0,0.9561
504.0,0.9319
505.0,0.9652
506.0,0.9964
507.0,0.9481
508.0,0.9185
509.0,0.9442
510.0,0.9392
511.0,0.9644
512.0,0.9749
513.0,0.9227
514.0,0.9163
515.0,0.9072
516.0,0.905
517.0,0.8042
518.0,0.8454
519.0,0.8868
520.0,0.919
521.0,0.9278
522.0,0.9286
523.0,0.9119
524.0,0.9446
525.0,0.9557
526.0,0.913
527.0,0.8604
528.0,0.91
529.0,0.9592
530.0,0.9454
531.0,0.9594
532.0,0.9265
533.0,0.8993
534.0,0.9259
535.0,0.9461
536.0,0.9548
537.0,0.9171
538.0,0.9333
539.0,0.9255
540.0,0.8873
541.0,0.8932
542.0,0.9212
543.0,0.9115
544.0,0.9273
545.0,0.9245
546.0,0.9285
547.0,0.9281
548.0,0.917
549.0,0.9198
550.0,0.9307
551.0,0.9194
552.0,0.9258
553.0,0.9092
554.0,0.931
555.0,0.9328
556.0,0.9207
557.0,0.8921
558.0,0.8854
559.0,0.8689
560.0,0.8798
561.0,0.8912
562.0,0.8847
563.0,0.9089
564.0,0.8842
565.0,0.8766
566.0,0.8637
567.0,0.8801
568.0,0.8723
569.0,0.8516
570.0,0.8513
571.0,0.8462
572.0,0.8666
573.0,0.8758
574.0,0.8731
575.0,0.8568
576.0,0.8489
577.0,0.8582
578.0,0.8453
579.0,0.8486
580.0,0.8647
581.0,0.8692
582.0,0.8856
583.0,0.8877
584.0,0.8954
585.0,0.8735
586.0,0.8556
587.0,0.8743
588.0,0.8532
589.0,0.756
590.0,0.7906
591.0,0.8365
592.0,0.826
593.0,0.8382
594.0,0.8324
595.0,0.8119
596.0,0.8438
597.0,0.8347
598.0,0.8325
599.0,0.8332
600.0,0.8344
601.0,0.8276
602.0,0.822
603.0,0.8355
604.0,0.8494
605.0,0.845
606.0,0.8415
607.0,0.8498
608.0,0.8404
609.0,0.8419
610.0,0.8359
611.0,0.8402
612.0,0.8378
613.0,0.8272
614.0,0.8159
615.0,0.8337
616.0,0.8062
617.0,0.8046
618.0,0.8355
619.0,0.8271
620.0,0.8323
621.0,0.8331
622.0,0.8234
623.0,0.8108
624.0,0.7969
625.0,0.7951
626.0,0.8069
627.0,0.8159
628.0,0.7621
629.0,0.7967
630.0,0.7783
631.0,0.7959
632.0,0.7863
633.0,0.8102
634.0,0.8023
635.0,0.8148
636.0,0.804
637.0,0.8172
638.0,0.825
639.0,0.8158
640.0,0.8079
641.0,0.8074
642.0,0.8037
643.0,0.8145
644.0,0.8119
645.0,0.8132
646.0,0.7942
647.0,0.7848
648.0,0.7855
649.0,0.7703
650.0,0.774
651.0,0.8076
652.0,0.774
653.0,0.7969
654.0,0.788
655.0,0.7587
656.0,0.6724
657.0,0.6905
658.0,0.7738
659.0,0.7793
660.0,0.7826
661.0,0.7881
662.0,0.7897
663.0,0.7741
664.0,0.7833
665.0,0.7839
666.0,0.7845
667.0,0.7837
668.0,0.7841
669.0,0.7962
670.0,0.7928
671.0,0.7926
672.0,0.7858
673.0,0.7976
674.0,0.7947
675.0,0.7874
676.0,0.7928
677.0,0.785
678.0,0.7872
679.0,0.7745
680.0,0.7807
681.0,0.7755
682.0,0.7745
683.0,0.7731
684.0,0.7692
685.0,0.7758
686.0,0.7712
687.0,0.5123
688.0,0.6002
689.0,0.6024
690.0,0.6318
691.0,0.6649
692.0,0.6891
693.0,0.6835
694.0,0.6778
695.0,0.7058
696.0,0.7068
697.0,0.75
698.0,0.7383
699.0,0.7207
700.0,0.712
701.0,0.7048
702.0,0.7096
703.0,0.711
704.0,0.7337
705.0,0.7348
706.0,0.7342
707.0,0.7347
708.0,0.7363
709.0,0.7373
710.0,0.7373
711.0,0.7363
712.0,0.7341
713.0,0.7267
714.0,0.7294
715.0,0.7064
716.0,0.7068
717.0,0.6132
718.0,0.5632
719.0,0.5159
720.0,0.5404
721.0,0.5965
722.0,0.6824
723.0,0.6353
724.0,0.5724
725.0,0.5632
726.0,0.5896
727.0,0.598
728.0,0.5618
729.0,0.5828
730.0,0.6167
731.0,0.59
732.0,0.6311
733.0,0.668
734.0,0.6839
735.0,0.6697
736.0,0.6689
737.0,0.6715
738.0,0.6819
739.0,0.6684
740.0,0.6858
741.0,0.679
742.0,0.6797
743.0,0.697
744.0,0.695
745.0,0.6951
746.0,0.6983
747.0,0.6998
748.0,0.6984
749.0,0.6904
750.0,0.69
751.0,0.683
752.0,0.6859
753.0,0.6894
754.0,0.6909
755.0,0.687
756.0,0.6867
757.0,0.6877
758.0,0.6792
759.0,0.6654
760.0,0.1099
761.0,0.05738
762.0,0.3392
763.0,0.1685
764.0,0.2542
765.0,0.3392
766.0,0.4172
767.0,0.5273
768.0,0.6092
769.0,0.6221
770.0,0.6434
771.0,0.6487
772.0,0.6501
773.0,0.6547
774.0,0.6515
775.0,0.6465
776.0,0.6544
777.0,0.6458
778.0,0.6419
779.0,0.6424
780.0,0.6388
781.0,0.6395
782.0,0.6435
783.0,0.6323
784.0,0.6353
785.0,0.6306
786.0,0.6375
787.0,0.6264
788.0,0.6185
789.0,0.6183
790.0,0.6018
791.0,0.607
792.0,0.6026
793.0,0.5928
794.0,0.6031
795.0,0.6132
796.0,0.5943
797.0,0.595
798.0,0.6125
799.0,0.6085
800.0,0.5979
801.0,0.5961
802.0,0.5943
803.0,0.5898
804.0,0.5906
805.0,0.5888
806.0,0.6054
807.0,0.5981
808.0,0.5986
809.0,0.5873
810.0,0.5825
811.0,0.5832
812.0,0.5664
813.0,0.5546
814.0,0.4877
815.0,0.4847
816.0,0.4511
817.0,0.4594
818.0,0.4421
819.0,0.4945
820.0,0.4656
821.0,0.5446
822.0,0.529
823.0,0.3592
824.0,0.5135
825.0,0.5352
826.0,0.5148
827.0,0.5433
828.0,0.4603
829.0,0.5116
830.0,0.5049
831.0,0.5067
832.0,0.4911
833.0,0.5227
834.0,0.504
835.0,0.554
836.0,0.5301
837.0,0.5556
838.0,0.5382
839.0,0.5472
840.0,0.5593
841.0,0.5513
842.0,0.5526
843.0,0.5524
844.0,0.5446
845.0,0.5631
846.0,0.5606
847.0,0.5502
848.0,0.5468
849.0,0.5312
850.0,0.509
851.0,0.5388
852.0,0.535
853.0,0.5151
854.0,0.4447
855.0,0.4886
856.0,0.5339
857.0,0.5459
858.0,0.5418
859.0,0.5424
860.0,0.5433
861.0,0.5404
862.0,0.5489
863.0,0.5618
864.0,0.5337
865.0,0.5291
866.0,0.4757
867.0,0.4965
868.0,0.5402
869.0,0.529
870.0,0.5441
871.0,0.5367
872.0,0.5348
873.0,0.5338
874.0,0.5274
875.0,0.5167
876.0,0.5221
877.0,0.5274
878.0,0.5331
879.0,0.5249
880.0,0.5136
881.0,0.5059
882.0,0.5168
883.0,0.5185
884.0,0.5161
885.0,0.52
886.0,0.4954
887.0,0.5008
888.0,0.5081
889.0,0.514
890.0,0.5095
891.0,0.5088
892.0,0.4938
893.0,0.4781
894.0,0.4608
895.0,0.4347
896.0,0.4092
897.0,0.3506
898.0,0.3831
899.0,0.2903
900.0,0.3928
901.0,0.3043
902.0,0.3586
903.0,0.3616
904.0,0.4573
905.0,0.4413
906.0,0.4127
907.0,0.3339
908.0,0.3407
909.0,0.3698
910.0,0.3258
911.0,0.348
912.0,0.3641
913.0,0.3305
914.0,0.328
915.0,0.3556
916.0,0.3006
917.0,0.3829
918.0,0.3082
919.0,0.3902
920.0,0.395
921.0,0.4109
922.0,0.3664
923.0,0.397
924.0,0.3754
925.0,0.3672
926.0,0.3712
927.0,0.4165
928.0,0.3027
929.0,0.2755
930.0,0.2151
931.0,0.204
932.0,0.1454
933.0,0.1174
934.0,0.06265
935.0,0.1208
936.0,0.07432
937.0,0.07519
938.0,0.09291
939.0,0.1976
940.0,0.2388
941.0,0.1787
942.0,0.2079
943.0,0.1355
944.0,0.1438
945.0,0.1846
946.0,0.09229
947.0,0.185
948.0,0.1357
949.0,0.2493
950.0,0.06672
951.0,0.2458
952.0,0.1298
953.0,0.1691
954.0,0.209
955.0,0.1713
956.0,0.1672
957.0,0.1298
958.0,0.2392
959.0,0.1882
960.0,0.211
961.0,0.2382
962.0,0.2252
963.0,0.2609
964.0,0.2386
965.0,0.2601
966.0,0.2598
967.0,0.2586
968.0,0.3512
969.0,0.3664
970.0,0.3359
971.0,0.3865
972.0,0.3693
973.0,0.3196
974.0,0.303
975.0,0.3153
976.0,0.2983
977.0,0.3416
978.0,0.3237
979.0,0.3396
980.0,0.3189
981.0,0.3843
982.0,0.3668
983.0,0.3517
984.0,0.3969
985.0,0.3654
986.0,0.4043
987.0,0.3958
988.0,0.3951
989.0,0.4034
990.0,0.3928
991.0,0.4046
992.0,0.407
993.0,0.3973
994.0,0.4069
995.0,0.4065
996.0,0.4046
997.0,0.4052
998.0,0.4033
999.0,0.4018
1000.0,0.3989
1001.0,0.404
1002.0,0.3923
1003.0,0.3968
1004.0,0.387
1005.0,0.373
1006.0,0.3875
1007.0,0.3957
1008.0,0.3935
1009.0,0.3913
1010.0,0.3895
1011.0,0.3937
1012.0,0.3902
1013.0,0.3928
1014.0,0.3901
1015.0,0.3875
1016.0,0.3857
1017.0,0.3867
1018.0,0.3853
1019.0,0.3768
1020.0,0.3832
1021.0,0.3827
1022.0,0.3797
1023.0,0.3837
1024.0,0.3785
1025.0,0.3835
1026.0,0.3818
1027.0,0.3809
1028.0,0.3801
1029.0,0.3756
1030.0,0.3783
1031.0,0.3767
1032.0,0.3756
1033.0,0.37
1034.0,0.37
1035.0,0.3712
1036.0,0.373
1037.0,0.367
1038.0,0.3686
1039.0,0.3684
1040.0,0.3669
1041.0,0.3683
1042.0,0.3658
1043.0,0.3646
1044.0,0.3659
1045.0,0.3609
1046.0,0.3569
1047.0,0.3601
1048.0,0.362
1049.0,0.3607
1050.0,0.359
1051.0,0.3585
1052.0,0.357
1053.0,0.3542
1054.0,0.3549
1055.0,0.3551
1056.0,0.3538
1057.0,0.3526
1058.0,0.3439
1059.0,0.3443
1060.0,0.3437
1061.0,0.3433
1062.0,0.3451
1063.0,0.3416
1064.0,0.3457
1065.0,0.3431
1066.0,0.3364
1067.0,0.3407
1068.0,0.3332
1069.0,0.323
1070.0,0.3339
1071.0,0.3393
1072.0,0.3352
1073.0,0.3304
1074.0,0.3392
1075.0,0.3216
1076.0,0.3389
1077.0,0.3324
1078.0,0.326
1079.0,0.3335
1080.0,0.3273
1081.0,0.3165
1082.0,0.3221
1083.0,0.3233
1084.0,0.3156
1085.0,0.3281
1086.0,0.2985
1087.0,0.3088
1088.0,0.3228
1089.0,0.3123
1090.0,0.3051
1091.0,0.3216
1092.0,0.3209
1093.0,0.2704
1094.0,0.2934
1095.0,0.2819
1096.0,0.2694
1097.0,0.3135
1098.0,0.265
1099.0,0.2767
1100.0,0.2565
1101.0,0.26
1102.0,0.2478
1103.0,0.2451
1104.0,0.2454
1105.0,0.2702
1106.0,0.2039
1107.0,0.2561
1108.0,0.2154
1109.0,0.2161
1110.0,0.2536
1111.0,0.1698
1112.0,0.2146
1113.0,0.1342
1114.0,0.1503
1115.0,0.1245
1116.0,0.09793
1117.0,0.03442
1118.0,0.1071
1119.0,0.05184
1120.0,0.06516
1121.0,0.08726
1122.0,0.03561
1123.0,0.05894
1124.0,0.04973
1125.0,0.06519
1126.0,0.02159
1127.0,0.07364
1128.0,0.04285
1129.0,0.04563
1130.0,0.02958
1131.0,0.1426
1132.0,0.1113
1133.0,0.06895
1134.0,0.01673
1135.0,0.006321
1136.0,0.05695
1137.0,0.1395
1138.0,0.09799
1139.0,0.1492
1140.0,0.1235
1141.0,0.09315
1142.0,0.1078
1143.0,0.1543
1144.0,0.05241
1145.0,0.06653
1146.0,0.07174
1147.0,0.02409
1148.0,0.1335
1149.0,0.1057
1150.0,0.05653
1151.0,0.09721
1152.0,0.1208
1153.0,0.1185
1154.0,0.06432
1155.0,0.1556
1156.0,0.1395
1157.0,0.1575
1158.0,0.1558
1159.0,0.1688
1160.0,0.1435
1161.0,0.1783
1162.0,0.1791
1163.0,0.2442
1164.0,0.2086
1165.0,0.196
1166.0,0.1952
1167.0,0.213
1168.0,0.2152
1169.0,0.2206
1170.0,0.2404
1171.0,0.2343
1172.0,0.2389
1173.0,0.2399
1174.0,0.1699
1175.0,0.2346
1176.0,0.2585
1177.0,0.2477
1178.0,0.1851
1179.0,0.2606
1180.0,0.2319
1181.0,0.2394
1182.0,0.1642
1183.0,0.2359
1184.0,0.2207
1185.0,0.2127
1186.0,0.2531
1187.0,0.2408
1188.0,0.1668
1189.0,0.2243
1190.0,0.2474
1191.0,0.2344
1192.0,0.2509
1193.0,0.2403
1194.0,0.2478
1195.0,0.234
1196.0,0.2252
1197.0,0.248
1198.0,0.2267
1199.0,0.1922
1200.0,0.2372
1201.0,0.2286
1202.0,0.2274
1203.0,0.2254
1204.0,0.1968
1205.0,0.2329
1206.0,0.2576
1207.0,0.2267
1208.0,0.2234
1209.0,0.228
1210.0,0.2377
1211.0,0.2261
1212.0,0.2231
1213.0,0.249
1214.0,0.2286
1215.0,0.2242
1216.0,0.2482
1217.0,0.2415
1218.0,0.2462
1219.0,0.2431
1220.0,0.2464
1221.0,0.2489
1222.0,0.2424
1223.0,0.2401
1224.0,0.2385
1225.0,0.2473
1226.0,0.249
1227.0,0.2295
1228.0,0.2503
1229.0,0.2491
1230.0,0.2448
1231.0,0.2519
1232.0,0.2504
1233.0,0.2416
1234.0,0.2517
1235.0,0.2501
1236.0,0.2519
1237.0,0.2483
1238.0,0.2511
1239.0,0.2479
1240.0,0.2488
1241.0,0.2476
1242.0,0.2471
1243.0,0.2451
1244.0,0.2468
1245.0,0.2479
1246.0,0.2464
1247.0,0.2455
1248.0,0.2453
1249.0,0.2461
1250.0,0.2446
1251.0,0.2414
1252.0,0.2415
1253.0,0.2395
1254.0,0.237
1255.0,0.2412
1256.0,0.2343
1257.0,0.233
1258.0,0.2375
1259.0,0.2287
1260.0,0.2299
1261.0,0.2167
1262.0,0.2101
1263.0,0.2105
1264.0,0.194
1265.0,0.2091
1266.0,0.201
1267.0,0.2047
1268.0,0.1939
1269.0,0.1189
1270.0,0.2039
1271.0,0.216
1272.0,0.2168
1273.0,0.2144
1274.0,0.2152
1275.0,0.2183
1276.0,0.2205
1277.0,0.222
1278.0,0.2264
1279.0,0.2243
1280.0,0.2215
1281.0,0.2114
1282.0,0.2038
1283.0,0.2195
1284.0,0.2247
1285.0,0.2262
1286.0,0.2293
1287.0,0.2257
1288.0,0.2256
1289.0,0.2183
1290.0,0.2236
1291.0,0.2268
1292.0,0.2128
1293.0,0.2223
1294.0,0.2207
1295.0,0.2196
1296.0,0.2095
1297.0,0.198
1298.0,0.2134
1299.0,0.2226
1300.0,0.1879
1301.0,0.1938
1302.0,0.2127
1303.0,0.1855
1304.0,0.1577
1305.0,0.2083
1306.0,0.2083
1307.0,0.1613
1308.0,0.1859
1309.0,0.2066
1310.0,0.1582
1311.0,0.1781
1312.0,0.1732
1313.0,0.1697
1314.0,0.1517
1315.0,0.1496
1316.0,0.1752
1317.0,0.1659
1318.0,0.1805
1319.0,0.1403
1320.0,0.1361
1321.0,0.1588
1322.0,0.1603
1323.0,0.1199
1324.0,0.1377
1325.0,0.1726
1326.0,0.1477
1327.0,0.1408
1328.0,0.1211
1329.0,0.09029
1330.0,0.1179
1331.0,0.07028
1332.0,0.07288
1333.0,0.1017
1334.0,0.08654
1335.0,0.1194
1336.0,0.094
1337.0,0.08286
1338.0,0.08968
1339.0,0.08941
1340.0,0.08722
1341.0,0.08458
1342.0,0.08889
1343.0,0.05899
1344.0,0.0354
1345.0,0.05111
1346.0,0.02461
1347.0,0.02489
1348.0,0.00151
1349.0,0.00553
1350.0,0.005824
1351.0,0.001332
1352.0,0.000337
1353.0,1.609e-05
1354.0,5.8e-05
1355.0,4.069e-07
1356.0,7.826e-06
1357.0,1.194e-05
1358.0,4.847e-07
1359.0,5.504e-08
1360.0,2.137e-07
1361.0,1.915e-10
1362.0,4.781e-13
1363.0,2.801e-07
1364.0,1.155e-07
1365.0,1.487e-13
1366.0,1.26e-06
1367.0,5.265e-07
1368.0,9.088e-16
1369.0,4.298e-08
1370.0,2.029e-08
1371.0,1.093e-09
1372.0,2.9e-07
1373.0,6.295e-06
1374.0,3.075e-05
1375.0,5.575e-05
1376.0,5.234e-05
1377.0,2.372e-05
1378.0,0.0002374
1379.0,9.956e-06
1380.0,1.391e-05
1381.0,3.533e-07
1382.0,2.583e-07
1383.0,3.725e-09
1384.0,4.775e-08
1385.0,2.571e-07
1386.0,2.232e-07
1387.0,3.096e-05
1388.0,6.116e-07
1389.0,0.0001111
1390.0,9.553e-05
1391.0,6.309e-05
1392.0,4.039e-06
1393.0,2.204e-05
1394.0,1.051e-05
1395.0,7.307e-08
1396.0,2.845e-10
1397.0,8.606e-06
1398.0,0.0002653
1399.0,0.0001686
1400.0,1.159e-10
1401.0,5.232e-10
1402.0,0.0005046
1403.0,0.0006255
1404.0,0.0001895
1405.0,3.425e-08
1406.0,0.0004816
1407.0,4.332e-05
1408.0,0.0003956
1409.0,0.0001272
1410.0,0.0001049
1411.0,0.0005516
1412.0,0.0007602
1413.0,0.00837
1414.0,8.324e-05
1415.0,3.915e-05
1416.0,0.01442
1417.0,0.004128
1418.0,0.004657
1419.0,0.0007127
1420.0,0.002841
1421.0,0.003079
1422.0,0.01888
1423.0,0.003596
1424.0,0.006809
1425.0,0.009904
1426.0,0.01153
1427.0,0.02188
1428.0,0.001409
1429.0,0.01602
1430.0,0.02819
1431.0,0.03119
1432.0,0.001104
1433.0,0.01952
1434.0,0.009773
1435.0,0.009233
1436.0,0.01865
1437.0,0.01431
1438.0,0.005812
1439.0,0.02573
1440.0,0.01926
