interpolation:linear
wavelength,value
280.0,1.799e-21
280.5,5.714e-20
281.0,3.028e-19
281.5,4.424e-19
282.0,1.019e-18
282.5,2.599e-18
283.0,8.281e-18
283.5,1.35e-17
284.0,2.187e-16
284.5,6.316e-16
285.0,1.353e-15
285.5,6.493e-15
286.0,2.59e-14
286.5,1.141e-13
287.0,3.23e-13
287.5,1.224e-12
288.0,3.487e-12
288.5,1.123e-11
289.0,3.116e-11
289.5,9.685e-11
290.0,2.734e-10
290.5,5.638e-10
291.0,1.223e-09
291.5,3.54e-09
292.0,7.235e-09
292.5,1.068e-08
293.0,2.441e-08
293.5,6.455e-08
294.0,1.069e-07
294.5,1.39e-07
295.0,2.483e-07
295.5,6.086e-07
296.0,1.176e-06
296.5,1.712e-06
297.0,2.404e-06
297.5,6.869e-06
298.0,1.151e-05
298.5,1.219e-05
299.0,2.84e-05
299.5,5.238e-05
300.0,6.151e-05
300.5,9.583e-05
301.0,0.000198
301.5,0.000365
302.0,0.0003414
302.5,0.00068
303.0,0.001253
303.5,0.001606
304.0,0.001529
304.5,0.002358
305.0,0.003739
305.5,0.004403
306.0,0.004308
306.5,0.005459
307.0,0.008411
307.5,0.01159
308.0,0.01231
308.5,0.01479
309.0,0.01469
309.5,0.01715
310.0,0.01739
310.5,0.02831
311.0,0.03581
311.5,0.03469
312.0,0.03526
312.5,0.04338
313.0,0.04732
313.5,0.04573
314.0,0.05792
314.5,0.05222
315.0,0.06884
315.5,0.05715
316.0,0.05059
316.5,0.07348
317.0,0.09123
317.5,0.09466
318.0,0.07443
318.5,0.09376
319.0,0.1121
319.5,0.09035
320.0,0.109
320.5,0.1384
321.0,0.1248
321.5,0.1199
322.0,0.1261
322.5,0.1098
323.0,0.1103
323.5,0.1367
324.0,0.1598
324.5,0.1617
325.0,0.1392
325.5,0.1802
326.0,0.2208
326.5,0.2221
327.0,0.2211
327.5,0.2132
328.0,0.1888
328.5,0.1998
329.0,0.2405
329.5,0.2735
330.0,0.2757
330.5,0.2198
331.0,0.2237
331.5,0.2281
332.0,0.2475
332.5,0.2454
333.0,0.2445
333.5,0.2206
334.0,0.226
334.5,0.2618
335.0,0.2465
335.5,0.288
336.0,0.1994
336.5,0.2333
337.0,0.1912
337.5,0.2377
338.0,0.2328
338.5,0.2689
339.0,0.2663
339.5,0.2562
340.0,0.3011
340.5,0.2716
341.0,0.265
341.5,0.2434
342.0,0.291
342.5,0.2724
343.0,0.2996
343.5,0.2822
344.0,0.2086
344.5,0.2107
345.0,0.2791
345.5,0.2851
346.0,0.2424
346.5,0.2746
347.0,0.2948
347.5,0.2385
348.0,0.272
348.5,0.272
349.0,0.2525
349.5,0.2501
350.0,0.3094
350.5,0.3265
351.0,0.2917
351.5,0.2835
352.0,0.3047
352.5,0.2379
353.0,0.2998
353.5,0.3207
354.0,0.333
354.5,0.3378
355.0,0.3368
355.5,0.3044
356.0,0.3186
356.5,0.2721
357.0,0.2249
357.5,0.2754
358.0,0.2183
358.5,0.1866
359.0,0.2611
359.5,0.3328
360.0,0.3529
360.5,0.2821
361.0,0.2573
361.5,0.2965
362.0,0.2565
362.5,0.3553
363.0,0.3193
363.5,0.2942
364.0,0.36
364.5,0.3078
365.0,0.3136
365.5,0.3937
366.0,0.4174
366.5,0.3924
367.0,0.3822
367.5,0.3968
368.0,0.3474
368.5,0.3507
369.0,0.3788
369.5,0.404
370.0,0.4308
370.5,0.3345
371.0,0.3576
371.5,0.4475
372.0,0.2971
372.5,0.3564
373.0,0.3627
373.5,0.2361
374.0,0.3431
374.5,0.2843
375.0,0.2764
375.5,0.4128
376.0,0.3423
376.5,0.3549
377.0,0.3759
377.5,0.4399
378.0,0.477
378.5,0.4509
379.0,0.3722
379.5,0.3401
380.0,0.3537
380.5,0.4286
381.0,0.4297
381.5,0.3408
382.0,0.3028
382.5,0.2583
383.0,0.2392
383.5,0.2305
384.0,0.2544
384.5,0.3743
385.0,0.3713
385.5,0.3459
386.0,0.2964
386.5,0.3895
387.0,0.3238
387.5,0.3638
388.0,0.336
388.5,0.3322
389.0,0.3588
389.5,0.4347
390.0,0.4364
390.5,0.4018
391.0,0.4731
391.5,0.4827
392.0,0.4067
392.5,0.3642
393.0,0.2028
393.5,0.1474
394.0,0.3001
394.5,0.3817
395.0,0.4659
395.5,0.4734
396.0,0.4106
396.5,0.2401
397.0,0.1803
397.5,0.3668
398.0,0.5137
398.5,0.5311
399.0,0.5754
399.5,0.5737
400.0,0.5958
401.0,0.6035
402.0,0.6372
403.0,0.6058
404.0,0.5968
405.0,0.597
406.0,0.5877
407.0,0.5786
408.0,0.6014
409.0,0.644
410.0,0.5631
411.0,0.6103
412.0,0.656
413.0,0.6399
414.0,0.6481
415.0,0.6503
416.0,0.6621
417.0,0.6461
418.0,0.6344
419.0,0.6431
420.0,0.6405
421.0,0.6704
422.0,0.6375
423.0,0.623
424.0,0.6591
425.0,0.6583
426.0,0.6417
427.0,0.6299
428.0,0.6138
429.0,0.5818
430.0,0.5094
431.0,0.505
432.0,0.6524
433.0,0.6562
434.0,0.6095
435.0,0.6367
436.0,0.7178
437.0,0.7086
438.0,0.6455
439.0,0.6675
440.0,0.689
441.0,0.7143
442.0,0.7664
443.0,0.7464
444.0,0.763
445.0,0.7465
446.0,0.7129
447.0,0.7712
448.0,0.7831
449.0,0.7867
450.0,0.809
451.0,0.8392
452.0,0.8088
453.0,0.761
454.0,0.7947
455.0,0.7998
456.0,0.819
457.0,0.8327
458.0,0.8042
459.0,0.8002
460.0,0.8023
461.0,0.821
462.0,0.8276
463.0,0.822
464.0,0.8088
465.0,0.799
466.0,0.8071
467.0,0.7923
468.0,0.8017
469.0,0.8059
470.0,0.7802
471.0,0.7794
472.0,0.8212
473.0,0.8106
474.0,0.8116
475.0,0.8183
476.0,0.7935
477.0,0.7955
478.0,0.8177
479.0,0.813
480.0,0.8148
481.0,0.8303
482.0,0.8351
483.0,0.8254
484.0,0.8087
485.0,0.7707
486.0,0.674
487.0,0.7066
488.0,0.7752
489.0,0.7775
490.0,0.8182
491.0,0.8043
492.0,0.7596
493.0,0.7845
494.0,0.7925
495.0,0.7993
496.0,0.8042
497.0,0.8167
498.0,0.7785
499.0,0.7883
500.0,0.7652
501.0,0.7509
502.0,0.74
503.0,0.7696
504.0,0.7488
505.0,0.7767
506.0,0.8018
507.0,0.763
508.0,0.7397
509.0,0.7607
510.0,0.757
511.0,0.7776
512.0,0.7862
513.0,0.7442
514.0,0.7392
515.0,0.7318
516.0,0.73
517.0,0.6487
518.0,0.682
519.0,0.7153
520.0,0.7413
521.0,0.7483
522.0,0.7489
523.0,0.7353
524.0,0.7614
525.0,0.77
526.0,0.7355
527.0,0.6928
528.0,0.7325
529.0,0.7719
530.0,0.7607
531.0,0.7719
532.0,0.7453
533.0,0.7235
534.0,0.745
535.0,0.7614
536.0,0.7686
537.0,0.7384
538.0,0.7515
539.0,0.7452
540.0,0.7144
541.0,0.7187
542.0,0.741
543.0,0.7336
544.0,0.746
545.0,0.7437
546.0,0.7467
547.0,0.7466
548.0,0.7378
549.0,0.7402
550.0,0.749
551.0,0.74
552.0,0.7451
553.0,0.7317
554.0,0.7492
555.0,0.7506
556.0,0.7408
557.0,0.7176
558.0,0.712
559.0,0.6985
560.0,0.7071
561.0,0.7161
562.0,0.7106
563.0,0.7298
564.0,0.7096
565.0,0.7033
566.0,0.6928
567.0,0.7056
568.0,0.6986
569.0,0.6806
570.0,0.6807
571.0,0.6769
572.0,0.6922
573.0,0.6995
574.0,0.6971
575.0,0.6837
576.0,0.6775
577.0,0.685
578.0,0.6751
579.0,0.6784
580.0,0.6924
581.0,0.6967
582.0,0.7105
583.0,0.7128
584.0,0.7194
585.0,0.7021
586.0,0.6876
587.0,0.7023
588.0,0.6835
589.0,0.6021
590.0,0.6299
591.0,0.6686
592.0,0.659
593.0,0.6703
594.0,0.665
595.0,0.6474
596.0,0.6757
597.0,0.6677
598.0,0.6668
599.0,0.6678
600.0,0.6695
601.0,0.6645
602.0,0.6601
603.0,0.6713
604.0,0.6825
605.0,0.6792
606.0,0.6767
607.0,0.6837
608.0,0.6764
609.0,0.6779
610.0,0.6733
611.0,0.677
612.0,0.6752
613.0,0.6669
614.0,0.658
615.0,0.6726
616.0,0.6506
617.0,0.6495
618.0,0.6746
619.0,0.6679
620.0,0.6721
621.0,0.6725
622.0,0.6644
623.0,0.6541
624.0,0.6431
625.0,0.6416
626.0,0.6511
627.0,0.6577
628.0,0.6065
629.0,0.6395
630.0,0.6245
631.0,0.6412
632.0,0.634
633.0,0.6544
634.0,0.6489
635.0,0.6594
636.0,0.6512
637.0,0.6622
638.0,0.6692
639.0,0.662
640.0,0.6559
641.0,0.6558
642.0,0.6531
643.0,0.6619
644.0,0.6601
645.0,0.661
646.0,0.6447
647.0,0.6349
648.0,0.6354
649.0,0.6229
650.0,0.6286
651.0,0.6564
652.0,0.6262
653.0,0.6478
654.0,0.6409
655.0,0.6155
656.0,0.5466
657.0,0.5614
658.0,0.63
659.0,0.6349
660.0,0.6377
661.0,0.6423
662.0,0.6431
663.0,0.6306
664.0,0.6388
665.0,0.6399
666.0,0.6407
667.0,0.6404
668.0,0.641
669.0,0.6511
670.0,0.6484
671.0,0.6484
672.0,0.6429
673.0,0.6528
674.0,0.6504
675.0,0.6446
676.0,0.6492
677.0,0.6428
678.0,0.6448
679.0,0.6345
680.0,0.6396
681.0,0.6354
682.0,0.6346
683.0,0.6334
684.0,0.6303
685.0,0.6358
686.0,0.6319
687.0,0.3865
688.0,0.4682
689.0,0.4704
690.0,0.4986
691.0,0.5309
692.0,0.5551
693.0,0.5502
694.0,0.5458
695.0,0.5725
696.0,0.5735
697.0,0.6136
698.0,0.6039
699.0,0.5862
700.0,0.5789
701.0,0.5719
702.0,0.5771
703.0,0.5784
704.0,0.5989
705.0,0.5998
706.0,0.6
707.0,0.6008
708.0,0.602
709.0,0.6041
710.0,0.6034
711.0,0.6031
712.0,0.6019
713.0,0.5952
714.0,0.5976
715.0,0.5775
716.0,0.5774
717.0,0.4888
718.0,0.4474
719.0,0.4087
720.0,0.4271
721.0,0.4786
722.0,0.5554
723.0,0.5131
724.0,0.4576
725.0,0.4486
726.0,0.4702
727.0,0.4799
728.0,0.4469
729.0,0.468
730.0,0.4947
731.0,0.4723
732.0,0.5097
733.0,0.5438
734.0,0.5579
735.0,0.5457
736.0,0.545
737.0,0.5471
738.0,0.5586
739.0,0.5476
740.0,0.5628
741.0,0.5577
742.0,0.5588
743.0,0.5732
744.0,0.5719
745.0,0.5723
746.0,0.5749
747.0,0.5763
748.0,0.5751
749.0,0.5686
750.0,0.5683
751.0,0.5625
752.0,0.565
753.0,0.5679
754.0,0.5692
755.0,0.5659
756.0,0.5657
757.0,0.5665
758.0,0.5594
759.0,0.5462
760.0,0.06315
761.0,0.02906
762.0,0.2445
763.0,0.1054
764.0,0.1726
765.0,0.2444
766.0,0.3158
767.0,0.4154
768.0,0.4935
769.0,0.5072
770.0,0.5281
771.0,0.534
772.0,0.5356
773.0,0.5395
774.0,0.537
775.0,0.533
776.0,0.5395
777.0,0.5324
778.0,0.5292
779.0,0.5296
780.0,0.5267
781.0,0.5273
782.0,0.5306
783.0,0.5214
784.0,0.524
785.0,0.52
786.0,0.5256
787.0,0.5149
788.0,0.5078
789.0,0.5075
790.0,0.4919
791.0,0.4982
792.0,0.4948
793.0,0.4866
794.0,0.4971
795.0,0.5049
796.0,0.4865
797.0,0.487
798.0,0.504
799.0,0.5002
800.0,0.4908
801.0,0.4887
802.0,0.4873
803.0,0.4832
804.0,0.4842
805.0,0.4835
806.0,0.4985
807.0,0.4921
808.0,0.4927
809.0,0.4824
810.0,0.4777
811.0,0.4768
812.0,0.4613
813.0,0.4506
814.0,0.3903
815.0,0.3882
816.0,0.3606
817.0,0.3678
818.0,0.3526
819.0,0.3995
820.0,0.3743
821.0,0.445
822.0,0.431
823.0,0.2815
824.0,0.4157
825.0,0.4371
826.0,0.4182
827.0,0.4437
828.0,0.3692
829.0,0.4161
830.0,0.41
831.0,0.4116
832.0,0.3977
833.0,0.4265
834.0,0.4091
835.0,0.4545
836.0,0.4318
837.0,0.456
838.0,0.4402
839.0,0.4495
840.0,0.4597
841.0,0.4525
842.0,0.4546
843.0,0.4555
844.0,0.4485
845.0,0.4645
846.0,0.4627
847.0,0.4544
848.0,0.4511
849.0,0.4382
850.0,0.4199
851.0,0.4441
852.0,0.4412
853.0,0.4251
854.0,0.3667
855.0,0.4034
856.0,0.4406
857.0,0.4508
858.0,0.4473
859.0,0.4479
860.0,0.4489
861.0,0.4464
862.0,0.4535
863.0,0.4642
864.0,0.441
865.0,0.4372
866.0,0.3931
867.0,0.4103
868.0,0.4465
869.0,0.4372
870.0,0.4497
871.0,0.4436
872.0,0.442
873.0,0.4412
874.0,0.4359
875.0,0.4271
876.0,0.4315
877.0,0.4359
878.0,0.4405
879.0,0.4338
880.0,0.4245
881.0,0.4178
882.0,0.4268
883.0,0.4284
884.0,0.4263
885.0,0.4295
886.0,0.4084
887.0,0.4135
888.0,0.4191
889.0,0.4247
890.0,0.4201
891.0,0.42
892.0,0.4065
893.0,0.3923
894.0,0.3755
895.0,0.3511
896.0,0.3295
897.0,0.2784
898.0,0.3063
899.0,0.2276
900.0,0.3165
901.0,0.2385
902.0,0.2873
903.0,0.2876
904.0,0.3727
905.0,0.3584
906.0,0.3342
907.0,0.2642
908.0,0.2707
909.0,0.2964
910.0,0.2562
911.0,0.2771
912.0,0.2906
913.0,0.2597
914.0,0.2587
915.0,0.2803
916.0,0.2361
917.0,0.3057
918.0,0.2417
919.0,0.3131
920.0,0.32
921.0,0.3331
922.0,0.2934
923.0,0.3221
924.0,0.3
925.0,0.2936
926.0,0.2963
927.0,0.3361
928.0,0.2342
929.0,0.2104
930.0,0.1601
931.0,0.1523
932.0,0.1042
933.0,0.08209
934.0,0.03963
935.0,0.08613
936.0,0.05029
937.0,0.05067
938.0,0.06363
939.0,0.1474
940.0,0.1813
941.0,0.1316
942.0,0.1554
943.0,0.09821
944.0,0.1073
945.0,0.1368
946.0,0.06425
947.0,0.136
948.0,0.09924
949.0,0.1873
950.0,0.04429
951.0,0.1854
952.0,0.09265
953.0,0.1242
954.0,0.1575
955.0,0.1262
956.0,0.1264
957.0,0.09224
958.0,0.1857
959.0,0.1415
960.0,0.1586
961.0,0.1828
962.0,0.1725
963.0,0.203
964.0,0.1847
965.0,0.2024
966.0,0.2016
967.0,0.2003
968.0,0.2839
969.0,0.2948
970.0,0.269
971.0,0.3146
972.0,0.2996
973.0,0.254
974.0,0.2403
975.0,0.252
976.0,0.2355
977.0,0.2755
978.0,0.2586
979.0,0.2729
980.0,0.2554
981.0,0.313
982.0,0.2968
983.0,0.2835
984.0,0.3255
985.0,0.2957
986.0,0.3331
987.0,0.3244
988.0,0.3239
989.0,0.3332
990.0,0.3219
991.0,0.334
992.0,0.3361
993.0,0.3265
994.0,0.3362
995.0,0.3361
996.0,0.3343
997.0,0.3349
998.0,0.3332
999.0,0.3321
1000.0,0.3293
1001.0,0.334
1002.0,0.3228
1003.0,0.3279
1004.0,0.3194
1005.0,0.3084
1006.0,0.3201
1007.0,0.3271
1008.0,0.3249
1009.0,0.3228
1010.0,0.3212
1011.0,0.3255
1012.0,0.3223
1013.0,0.3248
1014.0,0.3225
1015.0,0.3203
1016.0,0.3188
1017.0,0.3196
1018.0,0.3186
1019.0,0.311
1020.0,0.3168
1021.0,0.3165
1022.0,0.3138
1023.0,0.317
1024.0,0.3121
1025.0,0.3171
1026.0,0.3155
1027.0,0.3148
1028.0,0.3141
1029.0,0.3103
1030.0,0.3127
1031.0,0.3114
1032.0,0.3106
1033.0,0.3059
1034.0,0.3059
1035.0,0.3069
1036.0,0.3084
1037.0,0.3034
1038.0,0.3047
1039.0,0.3045
1040.0,0.3032
1041.0,0.3044
1042.0,0.3022
1043.0,0.3012
1044.0,0.3022
1045.0,0.2981
1046.0,0.2948
1047.0,0.2973
1048.0,0.2989
1049.0,0.2978
1050.0,0.2963
1051.0,0.2958
1052.0,0.2946
1053.0,0.2921
1054.0,0.2927
1055.0,0.2927
1056.0,0.2915
1057.0,0.2905
1058.0,0.2833
1059.0,0.2835
1060.0,0.283
1061.0,0.2826
1062.0,0.2839
1063.0,0.281
1064.0,0.2844
1065.0,0.282
1066.0,0.2767
1067.0,0.2802
1068.0,0.2739
1069.0,0.2656
1070.0,0.2744
1071.0,0.2793
1072.0,0.2756
1073.0,0.2717
1074.0,0.2795
1075.0,0.2634
1076.0,0.2792
1077.0,0.273
1078.0,0.2673
1079.0,0.2751
1080.0,0.2688
1081.0,0.2592
1082.0,0.2651
1083.0,0.2664
1084.0,0.2581
1085.0,0.2696
1086.0,0.2431
1087.0,0.253
1088.0,0.2658
1089.0,0.2556
1090.0,0.2488
1091.0,0.2644
1092.0,0.2641
1093.0,0.2184
1094.0,0.2409
1095.0,0.2281
1096.0,0.2168
1097.0,0.258
1098.0,0.2126
1099.0,0.2227
1100.0,0.2047
1101.0,0.208
1102.0,0.1972
1103.0,0.1942
1104.0,0.1945
1105.0,0.2171
1106.0,0.157
1107.0,0.2044
1108.0,0.1679
1109.0,0.1692
1110.0,0.2018
1111.0,0.1297
1112.0,0.1683
1113.0,0.09994
1114.0,0.1123
1115.0,0.09268
1116.0,0.06988
1117.0,0.02161
1118.0,0.07729
1119.0,0.03487
1120.0,0.04353
1121.0,0.05978
1122.0,0.02227
1123.0,0.0395
1124.0,0.03329
1125.0,0.04429
1126.0,0.01264
1127.0,0.05022
1128.0,0.02693
1129.0,0.02895
1130.0,0.01812
1131.0,0.1032
1132.0,0.07943
1133.0,0.04603
1134.0,0.009649
1135.0,0.003751
1136.0,0.03691
1137.0,0.0998
1138.0,0.06953
1139.0,0.1125
1140.0,0.09064
1141.0,0.06616
1142.0,0.07782
1143.0,0.1142
1144.0,0.03584
1145.0,0.04445
1146.0,0.04789
1147.0,0.01404
1148.0,0.09857
1149.0,0.07615
1150.0,0.03914
1151.0,0.06896
1152.0,0.08795
1153.0,0.08809
1154.0,0.04291
1155.0,0.1173
1156.0,0.1038
1157.0,0.1196
1158.0,0.1183
1159.0,0.1297
1160.0,0.1087
1161.0,0.1388
1162.0,0.1391
1163.0,0.1961
1164.0,0.1652
1165.0,0.1529
1166.0,0.1541
1167.0,0.1693
1168.0,0.1705
1169.0,0.1755
1170.0,0.1932
1171.0,0.1882
1172.0,0.1931
1173.0,0.1928
1174.0,0.1318
1175.0,0.1896
1176.0,0.2116
1177.0,0.201
1178.0,0.1466
1179.0,0.2134
1180.0,0.1871
1181.0,0.1932
1182.0,0.1286
1183.0,0.191
1184.0,0.1774
1185.0,0.1697
1186.0,0.2061
1187.0,0.1948
1188.0,0.13
1189.0,0.1812
1190.0,0.2016
1191.0,0.1886
1192.0,0.2047
1193.0,0.1952
1194.0,0.2018
1195.0,0.1889
1196.0,0.1808
1197.0,0.2028
1198.0,0.1844
1199.0,0.1528
1200.0,0.1926
1201.0,0.1843
1202.0,0.1843
1203.0,0.1823
1204.0,0.1575
1205.0,0.1898
1206.0,0.2117
1207.0,0.1833
1208.0,0.1817
1209.0,0.1857
1210.0,0.1944
1211.0,0.1836
1212.0,0.1794
1213.0,0.2038
1214.0,0.1845
1215.0,0.1807
1216.0,0.2033
1217.0,0.1972
1218.0,0.2016
1219.0,0.1987
1220.0,0.2019
1221.0,0.2043
1222.0,0.1986
1223.0,0.1964
1224.0,0.1945
1225.0,0.2029
1226.0,0.2048
1227.0,0.1869
1228.0,0.2063
1229.0,0.2049
1230.0,0.201
1231.0,0.208
1232.0,0.2067
1233.0,0.1979
1234.0,0.2082
1235.0,0.2066
1236.0,0.2083
1237.0,0.2047
1238.0,0.2076
1239.0,0.205
1240.0,0.2058
1241.0,0.2044
1242.0,0.2044
1243.0,0.2027
1244.0,0.204
1245.0,0.205
1246.0,0.2038
1247.0,0.2029
1248.0,0.2025
1249.0,0.2034
1250.0,0.202
1251.0,0.1992
1252.0,0.1995
1253.0,0.1973
1254.0,0.1949
1255.0,0.1992
1256.0,0.1925
1257.0,0.1912
1258.0,0.1956
1259.0,0.1869
1260.0,0.188
1261.0,0.1753
1262.0,0.169
1263.0,0.1692
1264.0,0.1537
1265.0,0.1682
1266.0,0.1603
1267.0,0.1642
1268.0,0.154
1269.0,0.08525
1270.0,0.1632
1271.0,0.175
1272.0,0.1758
1273.0,0.1737
1274.0,0.1746
1275.0,0.1775
1276.0,0.1797
1277.0,0.1814
1278.0,0.1857
1279.0,0.184
1280.0,0.1817
1281.0,0.1738
1282.0,0.1681
1283.0,0.1809
1284.0,0.1851
1285.0,0.1865
1286.0,0.1893
1287.0,0.1857
1288.0,0.1859
1289.0,0.1787
1290.0,0.1843
1291.0,0.1872
1292.0,0.1734
1293.0,0.1829
1294.0,0.1815
1295.0,0.1799
1296.0,0.1702
1297.0,0.1599
1298.0,0.1745
1299.0,0.1834
1300.0,0.1512
1301.0,0.1566
1302.0,0.174
1303.0,0.1496
1304.0,0.1238
1305.0,0.1702
1306.0,0.1699
1307.0,0.1279
1308.0,0.1505
1309.0,0.1681
1310.0,0.1252
1311.0,0.1434
1312.0,0.1389
1313.0,0.1355
1314.0,0.12
1315.0,0.1175
1316.0,0.1404
1317.0,0.1326
1318.0,0.1457
1319.0,0.1093
1320.0,0.1069
1321.0,0.1261
1322.0,0.1265
1323.0,0.09145
1324.0,0.1073
1325.0,0.1381
1326.0,0.1162
1327.0,0.1101
1328.0,0.09371
1329.0,0.06707
1330.0,0.08899
1331.0,0.04996
1332.0,0.0528
1333.0,0.07428
1334.0,0.06505
1335.0,0.09094
1336.0,0.06985
1337.0,0.06091
1338.0,0.0658
1339.0,0.06606
1340.0,0.06533
1341.0,0.06127
1342.0,0.06462
1343.0,0.03919
1344.0,0.02385
1345.0,0.03439
1346.0,0.01448
1347.0,0.01428
1348.0,0.0006415
1349.0,0.002542
1350.0,0.002831
1351.0,0.0004917
1352.0,8.907e-05
1353.0,3.152e-06
1354.0,1.412e-05
1355.0,5.072e-08
1356.0,1.511e-06
1357.0,2.311e-06
1358.0,6.209e-08
1359.0,4.195e-09
1360.0,2.275e-08
1361.0,7.336e-12
1362.0,1.287e-14
1363.0,2.422e-08
1364.0,1.019e-08
1365.0,2.519e-15
1366.0,1.245e-07
1367.0,5.969e-08
1368.0,9.156e-18
1369.0,3.736e-09
1370.0,1.418e-09
1371.0,6.051e-11
1372.0,3.326e-08
1373.0,1.005e-06
1374.0,6.218e-06
1375.0,1.082e-05
1376.0,1.293e-05
1377.0,5.596e-06
1378.0,6.01e-05
1379.0,2.354e-06
1380.0,2.792e-06
1381.0,6.358e-08
1382.0,2.773e-08
1383.0,3.438e-10
1384.0,3.768e-09
1385.0,3.594e-08
1386.0,2.036e-08
1387.0,5.235e-06
1388.0,1.108e-07
1389.0,2.505e-05
1390.0,2.115e-05
1391.0,1.352e-05
1392.0,8.279e-07
1393.0,5.084e-06
1394.0,1.599e-06
1395.0,8.908e-09
1396.0,1.242e-11
1397.0,1.812e-06
1398.0,6.479e-05
1399.0,4.181e-05
1400.0,3.854e-12
1401.0,2.514e-11
1402.0,0.0001794
1403.0,0.0002069
1404.0,6.058e-05
1405.0,3.455e-09
1406.0,0.000136
1407.0,1.394e-05
1408.0,0.0001145
1409.0,3.029e-05
1410.0,2.929e-05
1411.0,0.0001852
1412.0,0.0002802
1413.0,0.003941
1414.0,2.392e-05
1415.0,1.033e-05
1416.0,0.008075
1417.0,0.001982
1418.0,0.00212
1419.0,0.0003131
1420.0,0.001285
1421.0,0.001436
1422.0,0.01061
1423.0,0.00195
1424.0,0.003804
1425.0,0.005313
1426.0,0.006663
1427.0,0.01363
1428.0,0.0005809
1429.0,0.009446
1430.0,0.01807
1431.0,0.02035
1432.0,0.0004503
1433.0,0.01229
1434.0,0.005929
1435.0,0.004876
1436.0,0.01099
