interpolation:linear
wavelength,value
280.0,2.6549999999999997e-22
280.5,8.737e-21
281.0,4.685e-20
281.5,3.99e-19
282.0,6.522e-19
282.5,1.618e-18
283.0,5.119e-18
283.5,8.335e-18
284.0,1.374e-16
284.5,4.009e-16
285.0,6.587e-16
285.5,3.291e-15
286.0,1.328e-14
286.5,5.984e-14
287.0,1.718e-13
287.5,6.629e-13
288.0,2.303e-12
288.5,6.924e-12
289.0,1.837e-11
289.5,5.532e-11
290.0,1.534e-10
290.5,3.125e-10
291.0,6.705e-10
291.5,1.925e-09
292.0,3.874e-09
292.5,5.446e-09
293.0,1.171e-08
293.5,2.857e-08
294.0,4.476e-08
294.5,6.135e-08
295.0,1.041e-07
295.5,1.744e-07
296.0,3.393e-07
296.5,4.791e-07
297.0,6.537e-07
297.5,1.78e-06
298.0,2.847e-06
298.5,2.9e-06
299.0,6.48e-06
299.5,1.106e-05
300.0,1.236e-05
300.5,1.824e-05
301.0,3.409e-05
301.5,5.603e-05
302.0,4.87e-05
302.5,9.823e-05
303.0,0.0001848
303.5,0.0002414
304.0,0.0002352
304.5,0.0003867
305.0,0.0006745
305.5,0.000846
306.0,0.0008484
306.5,0.001122
307.0,0.001904
307.5,0.00289
308.0,0.003119
308.5,0.003938
309.0,0.003987
309.5,0.005062
310.0,0.005332
310.5,0.008841
311.0,0.01153
311.5,0.01132
312.0,0.0123
312.5,0.0158
313.0,0.01763
313.5,0.01668
314.0,0.02226
314.5,0.0215
315.0,0.02869
315.5,0.02303
316.0,0.02156
316.5,0.03285
317.0,0.04075
317.5,0.0417
318.0,0.03388
318.5,0.04544
319.0,0.05607
319.5,0.04294
320.0,0.05141
320.5,0.0696
321.0,0.0665
321.5,0.06422
322.0,0.06348
322.5,0.05545
323.0,0.05801
323.5,0.07469
324.0,0.08789
324.5,0.08747
325.0,0.07366
325.5,0.09859
326.0,0.122
326.5,0.1254
327.0,0.1239
327.5,0.1182
328.0,0.1018
328.5,0.1115
329.0,0.138
329.5,0.1583
330.0,0.1584
330.5,0.1236
331.0,0.1249
331.5,0.1294
332.0,0.1438
332.5,0.1441
333.0,0.1426
333.5,0.1265
334.0,0.1293
334.5,0.1527
335.0,0.1455
335.5,0.1705
336.0,0.118
336.5,0.1369
337.0,0.1113
337.5,0.138
338.0,0.1374
338.5,0.1594
339.0,0.1581
339.5,0.152
340.0,0.1779
340.5,0.1607
341.0,0.1573
341.5,0.1448
342.0,0.1733
342.5,0.1623
343.0,0.1783
343.5,0.1678
344.0,0.1237
344.5,0.1252
345.0,0.1662
345.5,0.17
346.0,0.1447
346.5,0.164
347.0,0.176
347.5,0.1423
348.0,0.1626
348.5,0.1627
349.0,0.1511
349.5,0.1497
350.0,0.1853
350.5,0.1956
351.0,0.1747
351.5,0.1695
352.0,0.1824
352.5,0.1426
353.0,0.1798
353.5,0.1925
354.0,0.2
354.5,0.2029
355.0,0.2022
355.5,0.1829
356.0,0.1915
356.5,0.1636
357.0,0.1352
357.5,0.1656
358.0,0.1313
358.5,0.1123
359.0,0.1571
359.5,0.2002
360.0,0.2124
360.5,0.1699
361.0,0.155
361.5,0.1787
362.0,0.1547
362.5,0.2144
363.0,0.1928
363.5,0.1777
364.0,0.2176
364.5,0.1861
365.0,0.1896
365.5,0.2382
366.0,0.2526
366.5,0.2376
367.0,0.2315
367.5,0.2404
368.0,0.2105
368.5,0.2126
369.0,0.2298
369.5,0.2451
370.0,0.2615
370.5,0.2031
371.0,0.2172
371.5,0.2719
372.0,0.1805
372.5,0.2166
373.0,0.2206
373.5,0.1436
374.0,0.2088
374.5,0.1731
375.0,0.1684
375.5,0.2515
376.0,0.2086
376.5,0.2163
377.0,0.2292
377.5,0.2683
378.0,0.291
378.5,0.2752
379.0,0.2272
379.5,0.2076
380.0,0.2159
380.5,0.2618
381.0,0.2626
381.5,0.2084
382.0,0.1852
382.5,0.1581
383.0,0.1465
383.5,0.1412
384.0,0.1559
384.5,0.2295
385.0,0.2277
385.5,0.2123
386.0,0.1819
386.5,0.2392
387.0,0.1989
387.5,0.2235
388.0,0.2065
388.5,0.2043
389.0,0.2207
389.5,0.2675
390.0,0.2687
390.5,0.2474
391.0,0.2915
391.5,0.2975
392.0,0.2507
392.5,0.2246
393.0,0.1251
393.5,0.09101
394.0,0.1853
394.5,0.2358
395.0,0.2879
395.5,0.2926
396.0,0.2539
396.5,0.1486
397.0,0.1116
397.5,0.227
398.0,0.318
398.5,0.3289
399.0,0.3566
399.5,0.3557
400.0,0.3694
401.0,0.3726
402.0,0.3937
403.0,0.3746
404.0,0.3693
405.0,0.3696
406.0,0.3642
407.0,0.3589
408.0,0.3732
409.0,0.3999
410.0,0.3499
411.0,0.3795
412.0,0.4083
413.0,0.3985
414.0,0.4039
415.0,0.4056
416.0,0.4133
417.0,0.4035
418.0,0.3965
419.0,0.4022
420.0,0.4008
421.0,0.4198
422.0,0.3994
423.0,0.3905
424.0,0.4133
425.0,0.4131
426.0,0.4031
427.0,0.3959
428.0,0.386
429.0,0.3663
430.0,0.3209
431.0,0.3182
432.0,0.4114
433.0,0.4141
434.0,0.3847
435.0,0.402
436.0,0.4536
437.0,0.4483
438.0,0.4086
439.0,0.4223
440.0,0.4362
441.0,0.4526
442.0,0.4857
443.0,0.473
444.0,0.4839
445.0,0.4735
446.0,0.4528
447.0,0.4903
448.0,0.4977
449.0,0.5006
450.0,0.5152
451.0,0.5346
452.0,0.5155
453.0,0.4853
454.0,0.5073
455.0,0.5106
456.0,0.5231
457.0,0.5319
458.0,0.5135
459.0,0.5111
460.0,0.5123
461.0,0.5244
462.0,0.5291
463.0,0.5255
464.0,0.5177
465.0,0.5121
466.0,0.5177
467.0,0.5081
468.0,0.5142
469.0,0.517
470.0,0.5004
471.0,0.5001
472.0,0.5269
473.0,0.5202
474.0,0.5204
475.0,0.5243
476.0,0.5079
477.0,0.5087
478.0,0.5231
479.0,0.5204
480.0,0.5219
481.0,0.5324
482.0,0.536
483.0,0.5304
484.0,0.5201
485.0,0.4961
486.0,0.4343
487.0,0.4557
488.0,0.5
489.0,0.5013
490.0,0.5278
491.0,0.5191
492.0,0.4903
493.0,0.5065
494.0,0.5117
495.0,0.5162
496.0,0.5194
497.0,0.5274
498.0,0.5027
499.0,0.5088
500.0,0.4935
501.0,0.4839
502.0,0.4761
503.0,0.4944
504.0,0.4789
505.0,0.4985
506.0,0.5145
507.0,0.4898
508.0,0.4755
509.0,0.4896
510.0,0.4876
511.0,0.5013
512.0,0.5071
513.0,0.4801
514.0,0.4771
515.0,0.4724
516.0,0.4711
517.0,0.4188
518.0,0.4402
519.0,0.4617
520.0,0.4784
521.0,0.4828
522.0,0.4829
523.0,0.4741
524.0,0.4905
525.0,0.4955
526.0,0.473
527.0,0.4451
528.0,0.4702
529.0,0.4952
530.0,0.4878
531.0,0.4948
532.0,0.4776
533.0,0.4637
534.0,0.4776
535.0,0.4884
536.0,0.4933
537.0,0.4741
538.0,0.4827
539.0,0.4786
540.0,0.4587
541.0,0.4608
542.0,0.4748
543.0,0.4705
544.0,0.4779
545.0,0.4766
546.0,0.4779
547.0,0.4784
548.0,0.473
549.0,0.4747
550.0,0.4804
551.0,0.4747
552.0,0.478
553.0,0.4693
554.0,0.4804
555.0,0.4812
556.0,0.4748
557.0,0.4597
558.0,0.4558
559.0,0.4468
560.0,0.452
561.0,0.4574
562.0,0.4535
563.0,0.4652
564.0,0.452
565.0,0.4477
566.0,0.4406
567.0,0.4484
568.0,0.4428
569.0,0.4292
570.0,0.4295
571.0,0.4277
572.0,0.4359
573.0,0.4402
574.0,0.4383
575.0,0.4294
576.0,0.4255
577.0,0.4305
578.0,0.4249
579.0,0.428
580.0,0.4384
581.0,0.4424
582.0,0.4523
583.0,0.4546
584.0,0.4594
585.0,0.4487
586.0,0.4395
587.0,0.4482
588.0,0.4335
589.0,0.3767
590.0,0.3945
591.0,0.4219
592.0,0.414
593.0,0.4235
594.0,0.4192
595.0,0.406
596.0,0.4281
597.0,0.4219
598.0,0.4227
599.0,0.4239
600.0,0.426
601.0,0.4237
602.0,0.421
603.0,0.4286
604.0,0.436
605.0,0.4341
606.0,0.433
607.0,0.438
608.0,0.4339
609.0,0.4352
610.0,0.4328
611.0,0.4354
612.0,0.4346
613.0,0.4295
614.0,0.4242
615.0,0.434
616.0,0.4202
617.0,0.4197
618.0,0.4362
619.0,0.4319
620.0,0.4347
621.0,0.4346
622.0,0.4291
623.0,0.4221
624.0,0.4153
625.0,0.4144
626.0,0.4203
627.0,0.4236
628.0,0.3785
629.0,0.4076
630.0,0.3976
631.0,0.4124
632.0,0.4086
633.0,0.4235
634.0,0.4213
635.0,0.4288
636.0,0.4243
637.0,0.4321
638.0,0.4376
639.0,0.4334
640.0,0.43
641.0,0.4304
642.0,0.4292
643.0,0.435
644.0,0.4344
645.0,0.4347
646.0,0.4225
647.0,0.4127
648.0,0.4132
649.0,0.4046
650.0,0.4127
651.0,0.4317
652.0,0.4076
653.0,0.4263
654.0,0.4221
655.0,0.4032
656.0,0.3596
657.0,0.3696
658.0,0.4162
659.0,0.42
660.0,0.4222
661.0,0.4254
662.0,0.4251
663.0,0.4171
664.0,0.4238
665.0,0.4255
666.0,0.4264
667.0,0.4267
668.0,0.4276
669.0,0.4347
670.0,0.4331
671.0,0.4333
672.0,0.4299
673.0,0.4367
674.0,0.4353
675.0,0.4317
676.0,0.4349
677.0,0.4308
678.0,0.4323
679.0,0.4255
680.0,0.4291
681.0,0.4264
682.0,0.4259
683.0,0.4251
684.0,0.423
685.0,0.4269
686.0,0.424
687.0,0.2111
688.0,0.2777
689.0,0.2798
690.0,0.3046
691.0,0.3339
692.0,0.3571
693.0,0.3535
694.0,0.352
695.0,0.3757
696.0,0.3767
697.0,0.4103
698.0,0.4037
699.0,0.3868
700.0,0.3818
701.0,0.3751
702.0,0.3805
703.0,0.3819
704.0,0.3985
705.0,0.399
706.0,0.4003
707.0,0.4013
708.0,0.402
709.0,0.4055
710.0,0.4039
711.0,0.4044
712.0,0.4046
713.0,0.3992
714.0,0.4011
715.0,0.3855
716.0,0.385
717.0,0.3079
718.0,0.2806
719.0,0.255
720.0,0.2644
721.0,0.3066
722.0,0.3669
723.0,0.3336
724.0,0.2908
725.0,0.283
726.0,0.297
727.0,0.3079
728.0,0.2811
729.0,0.3006
730.0,0.3162
731.0,0.3008
732.0,0.3313
733.0,0.3595
734.0,0.3709
735.0,0.3617
736.0,0.3608
737.0,0.3623
738.0,0.3749
739.0,0.3676
740.0,0.3793
741.0,0.3767
742.0,0.3784
743.0,0.3884
744.0,0.3882
745.0,0.3889
746.0,0.3907
747.0,0.3917
748.0,0.391
749.0,0.3866
750.0,0.3864
751.0,0.3826
752.0,0.3843
753.0,0.3863
754.0,0.3872
755.0,0.385
756.0,0.3849
757.0,0.3854
758.0,0.3805
759.0,0.3683
760.0,0.01811
761.0,0.006423
762.0,0.1191
763.0,0.0365
764.0,0.07266
765.0,0.1189
766.0,0.1737
767.0,0.2525
768.0,0.3219
769.0,0.336
770.0,0.3559
771.0,0.3626
772.0,0.3646
773.0,0.3675
774.0,0.366
775.0,0.3634
776.0,0.3679
777.0,0.3631
778.0,0.3609
779.0,0.3612
780.0,0.3592
781.0,0.3597
782.0,0.362
783.0,0.3558
784.0,0.3576
785.0,0.3547
786.0,0.3583
787.0,0.3486
788.0,0.3427
789.0,0.3424
790.0,0.3288
791.0,0.3362
792.0,0.3344
793.0,0.3285
794.0,0.3388
795.0,0.3432
796.0,0.3263
797.0,0.3261
798.0,0.3421
799.0,0.3387
800.0,0.3313
801.0,0.3287
802.0,0.3277
803.0,0.3244
804.0,0.3256
805.0,0.3265
806.0,0.3389
807.0,0.3341
808.0,0.3347
809.0,0.3259
810.0,0.3217
811.0,0.3187
812.0,0.3052
813.0,0.297
814.0,0.2492
815.0,0.2486
816.0,0.2298
817.0,0.2348
818.0,0.2232
819.0,0.2598
820.0,0.2411
821.0,0.2971
822.0,0.2862
823.0,0.1718
824.0,0.272
825.0,0.292
826.0,0.2759
827.0,0.2963
828.0,0.2365
829.0,0.2753
830.0,0.2705
831.0,0.2715
832.0,0.2605
833.0,0.2839
834.0,0.2694
835.0,0.3067
836.0,0.2862
837.0,0.3078
838.0,0.2944
839.0,0.3037
840.0,0.3113
841.0,0.3053
842.0,0.3084
843.0,0.3108
844.0,0.3051
845.0,0.3173
846.0,0.3163
847.0,0.3112
848.0,0.3082
849.0,0.2994
850.0,0.287
851.0,0.3026
852.0,0.3011
853.0,0.2907
854.0,0.2502
855.0,0.2761
856.0,0.3012
857.0,0.3087
858.0,0.306
859.0,0.3069
860.0,0.3078
861.0,0.306
862.0,0.311
863.0,0.3183
864.0,0.3025
865.0,0.2999
866.0,0.2697
867.0,0.2815
868.0,0.3063
869.0,0.3
870.0,0.3086
871.0,0.3044
872.0,0.3034
873.0,0.3028
874.0,0.2992
875.0,0.2931
876.0,0.2961
877.0,0.2992
878.0,0.3022
879.0,0.2976
880.0,0.2912
881.0,0.2863
882.0,0.2923
883.0,0.2938
884.0,0.2922
885.0,0.2944
886.0,0.2785
887.0,0.2831
888.0,0.2864
889.0,0.2913
890.0,0.2867
891.0,0.2873
892.0,0.2762
893.0,0.2648
894.0,0.2495
895.0,0.2284
896.0,0.2132
897.0,0.1748
898.0,0.1948
899.0,0.1389
900.0,0.2049
901.0,0.1455
902.0,0.1832
903.0,0.1805
904.0,0.2475
905.0,0.2364
906.0,0.2189
907.0,0.1641
908.0,0.1701
909.0,0.1895
910.0,0.1574
911.0,0.1755
912.0,0.1841
913.0,0.1592
914.0,0.16
915.0,0.1726
916.0,0.1447
917.0,0.1936
918.0,0.1475
919.0,0.2007
920.0,0.2104
921.0,0.2183
922.0,0.1877
923.0,0.2118
924.0,0.1903
925.0,0.1867
926.0,0.1874
927.0,0.2172
928.0,0.1381
929.0,0.1206
930.0,0.08627
931.0,0.08188
932.0,0.05075
933.0,0.03785
934.0,0.01428
935.0,0.04137
936.0,0.02137
937.0,0.02149
938.0,0.02796
939.0,0.07911
940.0,0.1015
941.0,0.06872
942.0,0.08359
943.0,0.04911
944.0,0.05768
945.0,0.07259
946.0,0.02932
947.0,0.0708
948.0,0.05128
949.0,0.1026
950.0,0.01839
951.0,0.102
952.0,0.04527
953.0,0.06477
954.0,0.08672
955.0,0.06631
956.0,0.07185
957.0,0.04483
958.0,0.11
959.0,0.07802
960.0,0.08747
961.0,0.1056
962.0,0.09958
963.0,0.1214
964.0,0.1093
965.0,0.1208
966.0,0.12
967.0,0.1184
968.0,0.1854
969.0,0.1896
970.0,0.1718
971.0,0.2084
972.0,0.1967
973.0,0.1594
974.0,0.1504
975.0,0.1599
976.0,0.1452
977.0,0.1792
978.0,0.1644
979.0,0.1754
980.0,0.1633
981.0,0.2075
982.0,0.194
983.0,0.1839
984.0,0.2194
985.0,0.193
986.0,0.2267
987.0,0.2183
988.0,0.2183
989.0,0.2283
990.0,0.2168
991.0,0.2286
992.0,0.2303
993.0,0.2212
994.0,0.2307
995.0,0.231
996.0,0.2293
997.0,0.23
998.0,0.2287
999.0,0.228
1000.0,0.2254
1001.0,0.2293
1002.0,0.219
1003.0,0.225
1004.0,0.2185
1005.0,0.2119
1006.0,0.2195
1007.0,0.2245
1008.0,0.2226
1009.0,0.2206
1010.0,0.2193
1011.0,0.2235
1012.0,0.2208
1013.0,0.2232
1014.0,0.2216
1015.0,0.22
1016.0,0.2189
1017.0,0.2193
1018.0,0.219
1019.0,0.2128
1020.0,0.2176
1021.0,0.2176
1022.0,0.2153
1023.0,0.2175
1024.0,0.2131
1025.0,0.2179
1026.0,0.2166
1027.0,0.2161
1028.0,0.2156
1029.0,0.2129
1030.0,0.2149
1031.0,0.2138
1032.0,0.2133
1033.0,0.2101
1034.0,0.2102
1035.0,0.2108
1036.0,0.2117
1037.0,0.2084
1038.0,0.2092
1039.0,0.209
1040.0,0.2081
1041.0,0.2088
1042.0,0.2073
1043.0,0.2066
1044.0,0.2072
1045.0,0.2043
1046.0,0.202
1047.0,0.2037
1048.0,0.2047
1049.0,0.2038
1050.0,0.2027
1051.0,0.2023
1052.0,0.2013
1053.0,0.1995
1054.0,0.1997
1055.0,0.1996
1056.0,0.1986
1057.0,0.1978
1058.0,0.1928
1059.0,0.1927
1060.0,0.1923
1061.0,0.1919
1062.0,0.1927
1063.0,0.1906
1064.0,0.1929
1065.0,0.1909
1066.0,0.1876
1067.0,0.1899
1068.0,0.1853
1069.0,0.1799
1070.0,0.1857
1071.0,0.1899
1072.0,0.1867
1073.0,0.1842
1074.0,0.1905
1075.0,0.1771
1076.0,0.1901
1077.0,0.1846
1078.0,0.18
1079.0,0.1878
1080.0,0.1818
1081.0,0.1739
1082.0,0.1801
1083.0,0.1816
1084.0,0.1728
1085.0,0.1825
1086.0,0.1614
1087.0,0.17
1088.0,0.1808
1089.0,0.1714
1090.0,0.1657
1091.0,0.1792
1092.0,0.1794
1093.0,0.1423
1094.0,0.1629
1095.0,0.1487
1096.0,0.1397
1097.0,0.1753
1098.0,0.136
1099.0,0.1434
1100.0,0.1296
1101.0,0.1326
1102.0,0.1239
1103.0,0.1208
1104.0,0.1212
1105.0,0.1393
1106.0,0.09144
1107.0,0.1295
1108.0,0.1008
1109.0,0.1025
1110.0,0.1264
1111.0,0.07395
1112.0,0.1023
1113.0,0.05395
1114.0,0.06077
1115.0,0.04951
1116.0,0.0339
1117.0,0.007851
1118.0,0.03818
1119.0,0.01459
1120.0,0.01773
1121.0,0.02571
1122.0,0.007608
1123.0,0.01619
1124.0,0.0136
1125.0,0.01883
1126.0,0.003666
1127.0,0.02153
1128.0,0.009427
1129.0,0.01031
1130.0,0.006195
1131.0,0.05108
1132.0,0.03798
1133.0,0.01867
1134.0,0.002752
1135.0,0.001166
1136.0,0.01386
1137.0,0.048
1138.0,0.03279
1139.0,0.06155
1140.0,0.04651
1141.0,0.03132
1142.0,0.03824
1143.0,0.05995
1144.0,0.01561
1145.0,0.01798
1146.0,0.01933
1147.0,0.004029
1148.0,0.05108
1149.0,0.03733
1150.0,0.01793
1151.0,0.03254
1152.0,0.0442
1153.0,0.04646
1154.0,0.01777
1155.0,0.06404
1156.0,0.05501
1157.0,0.06728
1158.0,0.06633
1159.0,0.07433
1160.0,0.06129
1161.0,0.08294
1162.0,0.08255
1163.0,0.1255
1164.0,0.1027
1165.0,0.09186
1166.0,0.09541
1167.0,0.1063
1168.0,0.1063
1169.0,0.1102
1170.0,0.1241
1171.0,0.1209
1172.0,0.1261
1173.0,0.124
1174.0,0.07882
1175.0,0.1238
1176.0,0.1421
1177.0,0.1322
1178.0,0.09189
1179.0,0.1433
1180.0,0.1214
1181.0,0.1255
1182.0,0.07816
1183.0,0.1249
1184.0,0.1142
1185.0,0.1075
1186.0,0.1364
1187.0,0.127
1188.0,0.07791
1189.0,0.1179
1190.0,0.1339
1191.0,0.1214
1192.0,0.1364
1193.0,0.1287
1194.0,0.134
1195.0,0.1228
1196.0,0.1161
1197.0,0.1356
1198.0,0.1223
1199.0,0.09606
1200.0,0.127
1201.0,0.1195
1202.0,0.1214
1203.0,0.1188
1204.0,0.1006
1205.0,0.1264
1206.0,0.1435
1207.0,0.1198
1208.0,0.1204
1209.0,0.1233
1210.0,0.1303
1211.0,0.1213
1212.0,0.1153
1213.0,0.1366
1214.0,0.1197
1215.0,0.117
1216.0,0.1366
1217.0,0.1315
1218.0,0.1354
1219.0,0.1328
1220.0,0.1357
1221.0,0.138
1222.0,0.1338
1223.0,0.1318
1224.0,0.1294
1225.0,0.1368
1226.0,0.139
1227.0,0.124
1228.0,0.1406
1229.0,0.139
1230.0,0.1359
1231.0,0.1425
1232.0,0.1416
1233.0,0.133
1234.0,0.1432
1235.0,0.1417
1236.0,0.1432
1237.0,0.1397
1238.0,0.1427
1239.0,0.1409
1240.0,0.1416
1241.0,0.14
1242.0,0.1405
1243.0,0.1394
1244.0,0.1401
1245.0,0.1409
1246.0,0.1401
1247.0,0.1393
1248.0,0.1387
1249.0,0.1396
1250.0,0.1385
1251.0,0.1361
1252.0,0.1369
1253.0,0.1344
1254.0,0.132
1255.0,0.1364
1256.0,0.13
1257.0,0.1288
1258.0,0.1332
1259.0,0.1246
1260.0,0.1257
1261.0,0.114
1262.0,0.1081
1263.0,0.1082
1264.0,0.09457
1265.0,0.1076
1266.0,0.1004
1267.0,0.1043
1268.0,0.09547
1269.0,0.0406
1270.0,0.1031
1271.0,0.1142
1272.0,0.115
1273.0,0.1133
1274.0,0.1144
1275.0,0.1169
1276.0,0.1189
1277.0,0.1209
1278.0,0.1251
1279.0,0.1238
1280.0,0.1224
1281.0,0.1177
1282.0,0.1149
1283.0,0.1234
1284.0,0.1261
1285.0,0.1272
1286.0,0.1297
1287.0,0.1262
1288.0,0.1267
1289.0,0.1197
1290.0,0.1257
1291.0,0.128
1292.0,0.115
1293.0,0.1243
1294.0,0.1232
1295.0,0.1208
1296.0,0.1121
1297.0,0.1038
1298.0,0.1168
1299.0,0.1249
1300.0,0.09765
1301.0,0.102
1302.0,0.1165
1303.0,0.09715
1304.0,0.0757
1305.0,0.1137
1306.0,0.1129
1307.0,0.07999
1308.0,0.09858
1309.0,0.1108
1310.0,0.0778
1311.0,0.0928
1312.0,0.08931
1313.0,0.0858
1314.0,0.0742
1315.0,0.07167
1316.0,0.08993
1317.0,0.08415
1318.0,0.09458
1319.0,0.06542
1320.0,0.06502
1321.0,0.07877
1322.0,0.07793
1323.0,0.05191
1324.0,0.06452
1325.0,0.0877
1326.0,0.07106
1327.0,0.06655
1328.0,0.05501
1329.0,0.03563
1330.0,0.04941
1331.0,0.024
1332.0,0.0264
1333.0,0.03783
1334.0,0.03597
1335.0,0.05112
1336.0,0.03697
1337.0,0.03183
1338.0,0.03403
1339.0,0.03466
1340.0,0.03547
1341.0,0.03046
1342.0,0.03255
1343.0,0.01591
1344.0,0.01012
1345.0,0.01414
1346.0,0.004282
1347.0,0.003925
1348.0,9.342e-05
1349.0,0.0004209
1350.0,0.0005113
1351.0,4.937e-05
1352.0,4.165e-06
1353.0,1.119e-07
1354.0,6.551e-07
1355.0,1.708e-09
1356.0,5.405e-08
1357.0,8.145e-08
1358.0,2.053e-09
1359.0,2.1e-10
1360.0,8.312e-10
1361.0,8.223e-13
1362.0,2.245e-15
1363.0,1.031e-09
1364.0,4.327e-10
1365.0,7.835e-16
1366.0,4.603e-09
1367.0,2.036e-09
1368.0,6.049e-18
1369.0,1.597e-10
1370.0,7.583e-11
1371.0,4.236e-12
1372.0,1.122e-09
1373.0,3.059e-08
1374.0,2.168e-07
1375.0,3.335e-07
1376.0,6.105e-07
1377.0,2.516e-07
1378.0,2.618e-06
1379.0,1.102e-07
1380.0,9.939e-08
1381.0,2.25e-09
1382.0,9.504e-10
1383.0,1.363e-11
1384.0,1.697e-10
1385.0,1.122e-09
1386.0,7.853e-10
1387.0,1.463e-07
1388.0,3.859e-09
1389.0,9.42e-07
1390.0,7.383e-07
1391.0,4.839e-07
1392.0,3.144e-08
1393.0,2.177e-07
1394.0,4.525e-08
1395.0,2.827e-10
1396.0,1.073e-12
1397.0,6.926e-08
1398.0,2.56e-06
1399.0,1.737e-06
1400.0,4.572e-13
1401.0,1.908e-12
1402.0,1.722e-05
1403.0,1.618e-05
1404.0,4.218e-06
1405.0,1.19e-10
1406.0,6.938e-06
1407.0,1.173e-06
1408.0,6.243e-06
1409.0,1.147e-06
1410.0,1.697e-06
1411.0,1.517e-05
1412.0,2.872e-05
1413.0,0.0006467
1414.0,1.496e-06
1415.0,5.545e-07
1416.0,0.002125
1417.0,0.0003899
1418.0,0.0003248
1419.0,4.495e-05
1420.0,0.0001951
1421.0,0.0002679
1422.0,0.002772
1423.0,0.0004912
1424.0,0.001057
1425.0,0.001292
1426.0,0.001975
1427.0,0.004604
1428.0,7.717e-05
1429.0,0.002787
1430.0,0.006624
