interpolation:linear
wavelength,value
280.0,2.902e-22
280.5,9.538e-21
281.0,5.1120000000000003e-20
281.5,4.061e-19
282.0,6.681e-19
282.5,1.658e-18
283.0,5.243e-18
283.5,8.535e-18
284.0,1.406e-16
284.5,4.099e-16
285.0,6.764e-16
285.5,3.378e-15
286.0,1.362e-14
286.5,6.136e-14
287.0,1.761e-13
287.5,6.789e-13
288.0,2.346e-12
288.5,7.068e-12
289.0,1.878e-11
289.5,5.66e-11
290.0,1.57e-10
290.5,3.199e-10
291.0,6.864e-10
291.5,1.97e-09
292.0,3.98e-09
292.5,5.596e-09
293.0,1.203e-08
293.5,2.938e-08
294.0,4.603e-08
294.5,6.308e-08
295.0,1.071e-07
295.5,1.805e-07
296.0,3.518e-07
296.5,4.976e-07
297.0,6.8e-07
297.5,1.857e-06
298.0,2.978e-06
298.5,3.041e-06
299.0,6.816e-06
299.5,1.17e-05
300.0,1.313e-05
300.5,1.945e-05
301.0,3.665e-05
301.5,6.075e-05
302.0,5.305e-05
302.5,0.0001071
303.0,0.0002016
303.5,0.0002634
304.0,0.0002565
304.5,0.0004211
305.0,0.0007327
305.5,0.0009174
306.0,0.0009195
306.5,0.001214
307.0,0.002055
307.5,0.003109
308.0,0.003354
308.5,0.004228
309.0,0.004304
309.5,0.005436
310.0,0.005713
310.5,0.009462
311.0,0.01232
311.5,0.01208
312.0,0.01307
312.5,0.01676
313.0,0.01867
313.5,0.01769
314.0,0.02353
314.5,0.02264
315.0,0.03018
315.5,0.02428
316.0,0.02265
316.5,0.03442
317.0,0.04269
317.5,0.04372
318.0,0.03545
318.5,0.04738
319.0,0.05835
319.5,0.04482
320.0,0.05368
320.5,0.0724
321.0,0.06895
321.5,0.06656
322.0,0.06604
322.5,0.05767
323.0,0.06019
323.5,0.07728
324.0,0.09091
324.5,0.09057
325.0,0.0764
325.5,0.1021
326.0,0.1262
326.5,0.1295
327.0,0.128
327.5,0.1222
328.0,0.1054
328.5,0.1152
329.0,0.1424
329.5,0.1632
330.0,0.1634
330.5,0.1277
331.0,0.1291
331.5,0.1337
332.0,0.1483
332.5,0.1484
333.0,0.147
333.5,0.1306
334.0,0.1334
334.5,0.1574
335.0,0.1498
335.5,0.1756
336.0,0.1215
336.5,0.1411
337.0,0.1148
337.5,0.1423
338.0,0.1415
338.5,0.1642
339.0,0.1627
339.5,0.1565
340.0,0.1832
340.5,0.1655
341.0,0.162
341.5,0.1491
342.0,0.1784
342.5,0.1671
343.0,0.1836
343.5,0.1728
344.0,0.1274
344.5,0.129
345.0,0.1711
345.5,0.175
346.0,0.149
346.5,0.1688
347.0,0.1812
347.5,0.1465
348.0,0.1673
348.5,0.1675
349.0,0.1555
349.5,0.1541
350.0,0.1907
350.5,0.2013
351.0,0.1798
351.5,0.1745
352.0,0.1878
352.5,0.1468
353.0,0.1851
353.5,0.1981
354.0,0.2058
354.5,0.2088
355.0,0.2082
355.5,0.1882
356.0,0.1971
356.5,0.1684
357.0,0.1392
357.5,0.1705
358.0,0.1352
358.5,0.1156
359.0,0.1617
359.5,0.206
360.0,0.2186
360.5,0.1748
361.0,0.1595
361.5,0.1839
362.0,0.1592
362.5,0.2206
363.0,0.1984
363.5,0.1829
364.0,0.2239
364.5,0.1915
365.0,0.1951
365.5,0.2451
366.0,0.2599
366.5,0.2444
367.0,0.2382
367.5,0.2474
368.0,0.2166
368.5,0.2187
369.0,0.2364
369.5,0.2521
370.0,0.269
370.5,0.2089
371.0,0.2234
371.5,0.2797
372.0,0.1857
372.5,0.2229
373.0,0.2269
373.5,0.1477
374.0,0.2148
374.5,0.1781
375.0,0.1732
375.5,0.2587
376.0,0.2146
376.5,0.2225
377.0,0.2357
377.5,0.276
378.0,0.2993
378.5,0.283
379.0,0.2337
379.5,0.2135
380.0,0.2221
380.5,0.2692
381.0,0.2701
381.5,0.2143
382.0,0.1905
382.5,0.1626
383.0,0.1507
383.5,0.1452
384.0,0.1603
384.5,0.236
385.0,0.2342
385.5,0.2183
386.0,0.1871
386.5,0.246
387.0,0.2045
387.5,0.2298
388.0,0.2124
388.5,0.2101
389.0,0.2269
389.5,0.275
390.0,0.2762
390.5,0.2544
391.0,0.2997
391.5,0.3058
392.0,0.2577
392.5,0.2309
393.0,0.1286
393.5,0.09356
394.0,0.1905
394.5,0.2424
395.0,0.296
395.5,0.3008
396.0,0.261
396.5,0.1527
397.0,0.1147
397.5,0.2334
398.0,0.3269
398.5,0.3381
399.0,0.3666
399.5,0.3656
400.0,0.3797
401.0,0.383
402.0,0.4048
403.0,0.3851
404.0,0.3796
405.0,0.38
406.0,0.3744
407.0,0.3689
408.0,0.3836
409.0,0.411
410.0,0.3596
411.0,0.39
412.0,0.4196
413.0,0.4095
414.0,0.4151
415.0,0.4168
416.0,0.4247
417.0,0.4146
418.0,0.4074
419.0,0.4132
420.0,0.4118
421.0,0.4313
422.0,0.4103
423.0,0.4012
424.0,0.4246
425.0,0.4243
426.0,0.414
427.0,0.4067
428.0,0.3964
429.0,0.3762
430.0,0.3296
431.0,0.3267
432.0,0.4225
433.0,0.4252
434.0,0.395
435.0,0.4127
436.0,0.4658
437.0,0.4602
438.0,0.4196
439.0,0.4335
440.0,0.4478
441.0,0.4646
442.0,0.4987
443.0,0.4856
444.0,0.4968
445.0,0.4861
446.0,0.4648
447.0,0.5033
448.0,0.5108
449.0,0.5138
450.0,0.5287
451.0,0.5487
452.0,0.5291
453.0,0.498
454.0,0.5206
455.0,0.5239
456.0,0.5367
457.0,0.5458
458.0,0.5269
459.0,0.5245
460.0,0.5257
461.0,0.5381
462.0,0.5429
463.0,0.5392
464.0,0.5312
465.0,0.5254
466.0,0.5311
467.0,0.5212
468.0,0.5275
469.0,0.5303
470.0,0.5134
471.0,0.513
472.0,0.5406
473.0,0.5336
474.0,0.5339
475.0,0.5379
476.0,0.5211
477.0,0.522
478.0,0.5367
479.0,0.534
480.0,0.5355
481.0,0.5462
482.0,0.5498
483.0,0.5441
484.0,0.5335
485.0,0.5088
486.0,0.4454
487.0,0.4673
488.0,0.5127
489.0,0.5141
490.0,0.5413
491.0,0.5323
492.0,0.5028
493.0,0.5194
494.0,0.5248
495.0,0.5293
496.0,0.5326
497.0,0.5408
498.0,0.5155
499.0,0.5218
500.0,0.5061
501.0,0.4963
502.0,0.4884
503.0,0.5072
504.0,0.4914
505.0,0.5114
506.0,0.5278
507.0,0.5024
508.0,0.4877
509.0,0.5021
510.0,0.5001
511.0,0.5142
512.0,0.5201
513.0,0.4924
514.0,0.4893
515.0,0.4844
516.0,0.4831
517.0,0.4295
518.0,0.4514
519.0,0.4735
520.0,0.4906
521.0,0.4951
522.0,0.4953
523.0,0.4862
524.0,0.5031
525.0,0.5082
526.0,0.4852
527.0,0.4566
528.0,0.4824
529.0,0.508
530.0,0.5005
531.0,0.5076
532.0,0.49
533.0,0.4757
534.0,0.49
535.0,0.5011
536.0,0.506
537.0,0.4864
538.0,0.4952
539.0,0.491
540.0,0.4706
541.0,0.4728
542.0,0.4871
543.0,0.4827
544.0,0.4903
545.0,0.489
546.0,0.4904
547.0,0.4908
548.0,0.4853
549.0,0.487
550.0,0.4928
551.0,0.487
552.0,0.4904
553.0,0.4815
554.0,0.4929
555.0,0.4937
556.0,0.4871
557.0,0.4717
558.0,0.4677
559.0,0.4584
560.0,0.4638
561.0,0.4694
562.0,0.4654
563.0,0.4775
564.0,0.4639
565.0,0.4595
566.0,0.4523
567.0,0.4603
568.0,0.4546
569.0,0.4408
570.0,0.4411
571.0,0.4392
572.0,0.4477
573.0,0.4521
574.0,0.4502
575.0,0.4411
576.0,0.4372
577.0,0.4422
578.0,0.4365
579.0,0.4396
580.0,0.4502
581.0,0.4541
582.0,0.4642
583.0,0.4666
584.0,0.4714
585.0,0.4604
586.0,0.451
587.0,0.46
588.0,0.4451
589.0,0.3871
590.0,0.4054
591.0,0.4333
592.0,0.4253
593.0,0.4349
594.0,0.4305
595.0,0.4171
596.0,0.4396
597.0,0.4333
598.0,0.434
599.0,0.4352
600.0,0.4373
601.0,0.4349
602.0,0.4321
603.0,0.4398
604.0,0.4474
605.0,0.4455
606.0,0.4443
607.0,0.4494
608.0,0.4451
609.0,0.4465
610.0,0.444
611.0,0.4467
612.0,0.4458
613.0,0.4405
614.0,0.435
615.0,0.4451
616.0,0.4309
617.0,0.4303
618.0,0.4472
619.0,0.4429
620.0,0.4457
621.0,0.4457
622.0,0.44
623.0,0.4329
624.0,0.4259
625.0,0.4249
626.0,0.4311
627.0,0.4345
628.0,0.389
629.0,0.4183
630.0,0.4081
631.0,0.4231
632.0,0.4191
633.0,0.4342
634.0,0.4319
635.0,0.4396
636.0,0.4349
637.0,0.4428
638.0,0.4484
639.0,0.4441
640.0,0.4406
641.0,0.4409
642.0,0.4396
643.0,0.4456
644.0,0.4449
645.0,0.4452
646.0,0.4328
647.0,0.423
648.0,0.4235
649.0,0.4147
650.0,0.4228
651.0,0.4422
652.0,0.4177
653.0,0.4366
654.0,0.4323
655.0,0.4131
656.0,0.3683
657.0,0.3786
658.0,0.4262
659.0,0.43
660.0,0.4323
661.0,0.4355
662.0,0.4353
663.0,0.4271
664.0,0.4339
665.0,0.4355
666.0,0.4364
667.0,0.4367
668.0,0.4376
669.0,0.4448
670.0,0.4432
671.0,0.4434
672.0,0.4398
673.0,0.4468
674.0,0.4454
675.0,0.4416
676.0,0.4449
677.0,0.4407
678.0,0.4422
679.0,0.4353
680.0,0.4389
681.0,0.4362
682.0,0.4356
683.0,0.4349
684.0,0.4327
685.0,0.4367
686.0,0.4338
687.0,0.2189
688.0,0.2864
689.0,0.2885
690.0,0.3135
691.0,0.343
692.0,0.3663
693.0,0.3626
694.0,0.361
695.0,0.3848
696.0,0.3859
697.0,0.4198
698.0,0.413
699.0,0.3961
700.0,0.391
701.0,0.3842
702.0,0.3897
703.0,0.391
704.0,0.4078
705.0,0.4084
706.0,0.4096
707.0,0.4106
708.0,0.4113
709.0,0.4148
710.0,0.4132
711.0,0.4137
712.0,0.4139
713.0,0.4084
714.0,0.4103
715.0,0.3945
716.0,0.394
717.0,0.3162
718.0,0.2882
719.0,0.262
720.0,0.2718
721.0,0.3146
722.0,0.3756
723.0,0.3419
724.0,0.2985
725.0,0.2906
726.0,0.305
727.0,0.3158
728.0,0.2887
729.0,0.3083
730.0,0.3244
731.0,0.3087
732.0,0.3396
733.0,0.3681
734.0,0.3796
735.0,0.3702
736.0,0.3694
737.0,0.3709
738.0,0.3835
739.0,0.376
740.0,0.3879
741.0,0.3852
742.0,0.3869
743.0,0.3971
744.0,0.3968
745.0,0.3975
746.0,0.3993
747.0,0.4004
748.0,0.3996
749.0,0.3951
750.0,0.395
751.0,0.391
752.0,0.3928
753.0,0.3949
754.0,0.3957
755.0,0.3935
756.0,0.3934
757.0,0.3939
758.0,0.3889
759.0,0.3766
760.0,0.0195
761.0,0.007002
762.0,0.1244
763.0,0.03891
764.0,0.07656
765.0,0.1242
766.0,0.1799
767.0,0.2599
768.0,0.3299
769.0,0.344
770.0,0.364
771.0,0.3707
772.0,0.3726
773.0,0.3755
774.0,0.374
775.0,0.3713
776.0,0.376
777.0,0.371
778.0,0.3688
779.0,0.3691
780.0,0.3671
781.0,0.3675
782.0,0.3699
783.0,0.3636
784.0,0.3654
785.0,0.3624
786.0,0.3662
787.0,0.3564
788.0,0.3504
789.0,0.3502
790.0,0.3364
791.0,0.3438
792.0,0.3419
793.0,0.3359
794.0,0.3462
795.0,0.3508
796.0,0.3337
797.0,0.3336
798.0,0.3497
799.0,0.3463
800.0,0.3388
801.0,0.3362
802.0,0.3352
803.0,0.3318
804.0,0.333
805.0,0.3338
806.0,0.3464
807.0,0.3415
808.0,0.3421
809.0,0.3332
810.0,0.329
811.0,0.3261
812.0,0.3124
813.0,0.3041
814.0,0.2557
815.0,0.255
816.0,0.2358
817.0,0.2409
818.0,0.2291
819.0,0.2663
820.0,0.2472
821.0,0.304
822.0,0.2929
823.0,0.1767
824.0,0.2786
825.0,0.2988
826.0,0.2825
827.0,0.3031
828.0,0.2426
829.0,0.2818
830.0,0.277
831.0,0.278
832.0,0.2669
833.0,0.2906
834.0,0.2758
835.0,0.3136
836.0,0.293
837.0,0.3147
838.0,0.3012
839.0,0.3105
840.0,0.3182
841.0,0.3122
842.0,0.3153
843.0,0.3176
844.0,0.3119
845.0,0.3242
846.0,0.3232
847.0,0.3179
848.0,0.3149
849.0,0.3059
850.0,0.2932
851.0,0.3092
852.0,0.3076
853.0,0.297
854.0,0.2557
855.0,0.282
856.0,0.3077
857.0,0.3154
858.0,0.3127
859.0,0.3135
860.0,0.3144
861.0,0.3125
862.0,0.3176
863.0,0.3251
864.0,0.309
865.0,0.3064
866.0,0.2755
867.0,0.2875
868.0,0.3129
869.0,0.3065
870.0,0.3152
871.0,0.3109
872.0,0.3099
873.0,0.3093
874.0,0.3056
875.0,0.2994
876.0,0.3024
877.0,0.3056
878.0,0.3087
879.0,0.304
880.0,0.2975
881.0,0.2925
882.0,0.2986
883.0,0.3001
884.0,0.2985
885.0,0.3007
886.0,0.2846
887.0,0.2892
888.0,0.2926
889.0,0.2976
890.0,0.293
891.0,0.2936
892.0,0.2823
893.0,0.2708
894.0,0.2554
895.0,0.234
896.0,0.2186
897.0,0.1795
898.0,0.1999
899.0,0.1429
900.0,0.2101
901.0,0.1497
902.0,0.188
903.0,0.1854
904.0,0.2533
905.0,0.242
906.0,0.2242
907.0,0.1687
908.0,0.1747
909.0,0.1944
910.0,0.1619
911.0,0.1801
912.0,0.189
913.0,0.1638
914.0,0.1645
915.0,0.1775
916.0,0.1488
917.0,0.1987
918.0,0.1518
919.0,0.2058
920.0,0.2154
921.0,0.2236
922.0,0.1925
923.0,0.2169
924.0,0.1953
925.0,0.1916
926.0,0.1924
927.0,0.2227
928.0,0.1424
929.0,0.1246
930.0,0.08946
931.0,0.08494
932.0,0.05298
933.0,0.03965
934.0,0.01519
935.0,0.04323
936.0,0.0225
937.0,0.02262
938.0,0.02938
939.0,0.08208
940.0,0.105
941.0,0.07141
942.0,0.08672
943.0,0.05118
944.0,0.05984
945.0,0.07536
946.0,0.03073
947.0,0.07358
948.0,0.05332
949.0,0.1063
950.0,0.01938
951.0,0.1057
952.0,0.04723
953.0,0.06731
954.0,0.08983
955.0,0.06886
956.0,0.07421
957.0,0.04678
958.0,0.1134
959.0,0.08079
960.0,0.09057
961.0,0.1091
962.0,0.1028
963.0,0.1251
964.0,0.1127
965.0,0.1244
966.0,0.1236
967.0,0.1221
968.0,0.19
969.0,0.1945
970.0,0.1762
971.0,0.2134
972.0,0.2015
973.0,0.1637
974.0,0.1545
975.0,0.1642
976.0,0.1493
977.0,0.1836
978.0,0.1687
979.0,0.1799
980.0,0.1675
981.0,0.2124
982.0,0.1987
983.0,0.1885
984.0,0.2243
985.0,0.1978
986.0,0.2317
987.0,0.2233
988.0,0.2232
989.0,0.2332
990.0,0.2217
991.0,0.2335
992.0,0.2353
993.0,0.2262
994.0,0.2356
995.0,0.2359
996.0,0.2343
997.0,0.2349
998.0,0.2336
999.0,0.2329
1000.0,0.2303
1001.0,0.2342
1002.0,0.2239
1003.0,0.2299
1004.0,0.2232
1005.0,0.2164
1006.0,0.2242
1007.0,0.2293
1008.0,0.2274
1009.0,0.2254
1010.0,0.2241
1011.0,0.2282
1012.0,0.2255
1013.0,0.2279
1014.0,0.2263
1015.0,0.2247
1016.0,0.2236
1017.0,0.224
1018.0,0.2237
1019.0,0.2174
1020.0,0.2223
1021.0,0.2222
1022.0,0.2199
1023.0,0.2222
1024.0,0.2178
1025.0,0.2225
1026.0,0.2212
1027.0,0.2208
1028.0,0.2202
1029.0,0.2174
1030.0,0.2195
1031.0,0.2184
1032.0,0.2179
1033.0,0.2146
1034.0,0.2147
1035.0,0.2153
1036.0,0.2163
1037.0,0.2128
1038.0,0.2137
1039.0,0.2135
1040.0,0.2126
1041.0,0.2133
1042.0,0.2118
1043.0,0.211
1044.0,0.2117
1045.0,0.2087
1046.0,0.2063
1047.0,0.2081
1048.0,0.2091
1049.0,0.2082
1050.0,0.2071
1051.0,0.2067
1052.0,0.2057
1053.0,0.2039
1054.0,0.2041
1055.0,0.204
1056.0,0.203
1057.0,0.2022
1058.0,0.197
1059.0,0.197
1060.0,0.1965
1061.0,0.1962
1062.0,0.1969
1063.0,0.1948
1064.0,0.1972
1065.0,0.1952
1066.0,0.1918
1067.0,0.1941
1068.0,0.1895
1069.0,0.184
1070.0,0.1898
1071.0,0.1941
1072.0,0.1909
1073.0,0.1883
1074.0,0.1947
1075.0,0.1811
1076.0,0.1943
1077.0,0.1887
1078.0,0.1841
1079.0,0.1919
1080.0,0.1859
1081.0,0.1779
1082.0,0.1841
1083.0,0.1855
1084.0,0.1768
1085.0,0.1866
1086.0,0.1652
1087.0,0.1739
1088.0,0.1847
1089.0,0.1753
1090.0,0.1696
1091.0,0.1832
1092.0,0.1834
1093.0,0.1458
1094.0,0.1665
1095.0,0.1524
1096.0,0.1433
1097.0,0.1792
1098.0,0.1396
1099.0,0.147
1100.0,0.133
1101.0,0.136
1102.0,0.1272
1103.0,0.1242
1104.0,0.1246
1105.0,0.1429
1106.0,0.09435
1107.0,0.1329
1108.0,0.1038
1109.0,0.1055
1110.0,0.1299
1111.0,0.07642
1112.0,0.1052
1113.0,0.05594
1114.0,0.063
1115.0,0.05139
1116.0,0.0354
1117.0,0.008341
1118.0,0.03983
1119.0,0.01538
1120.0,0.01872
1121.0,0.02706
1122.0,0.00813
1123.0,0.0171
1124.0,0.01437
1125.0,0.01983
1126.0,0.003959
1127.0,0.02267
1128.0,0.01005
1129.0,0.01099
1130.0,0.006607
1131.0,0.05328
1132.0,0.03971
1133.0,0.01973
1134.0,0.002973
1135.0,0.001252
1136.0,0.01471
1137.0,0.05016
1138.0,0.03431
1139.0,0.0638
1140.0,0.0484
1141.0,0.03276
1142.0,0.03991
1143.0,0.0623
1144.0,0.01641
1145.0,0.019
1146.0,0.02044
1147.0,0.004354
1148.0,0.05314
1149.0,0.03896
1150.0,0.01878
1151.0,0.03404
1152.0,0.04606
1153.0,0.04827
1154.0,0.01873
1155.0,0.06638
1156.0,0.05713
1157.0,0.06959
1158.0,0.06862
1159.0,0.07681
1160.0,0.06336
1161.0,0.08545
1162.0,0.08509
1163.0,0.1288
1164.0,0.1055
1165.0,0.0946
1166.0,0.09807
1167.0,0.1092
1168.0,0.1093
1169.0,0.1132
1170.0,0.1273
1171.0,0.124
1172.0,0.1292
1173.0,0.1272
1174.0,0.08118
1175.0,0.1268
1176.0,0.1454
1177.0,0.1354
1178.0,0.09436
1179.0,0.1466
1180.0,0.1245
1181.0,0.1287
1182.0,0.08043
1183.0,0.128
1184.0,0.1171
1185.0,0.1103
1186.0,0.1396
1187.0,0.1302
1188.0,0.08025
1189.0,0.1209
1190.0,0.1371
1191.0,0.1245
1192.0,0.1395
1193.0,0.1318
1194.0,0.1371
1195.0,0.1258
1196.0,0.1191
1197.0,0.1388
1198.0,0.1252
1199.0,0.09865
1200.0,0.13
1201.0,0.1225
1202.0,0.1243
1203.0,0.1217
1204.0,0.1032
1205.0,0.1293
1206.0,0.1467
1207.0,0.1228
1208.0,0.1232
1209.0,0.1262
1210.0,0.1333
1211.0,0.1241
1212.0,0.1183
1213.0,0.1397
1214.0,0.1227
1215.0,0.12
1216.0,0.1398
1217.0,0.1346
1218.0,0.1385
1219.0,0.1358
1220.0,0.1388
1221.0,0.1411
1222.0,0.1368
1223.0,0.1348
1224.0,0.1324
1225.0,0.1399
1226.0,0.1421
1227.0,0.1269
1228.0,0.1437
1229.0,0.1421
1230.0,0.1389
1231.0,0.1456
1232.0,0.1446
1233.0,0.136
1234.0,0.1462
1235.0,0.1448
1236.0,0.1463
1237.0,0.1427
1238.0,0.1458
1239.0,0.1439
1240.0,0.1446
1241.0,0.143
1242.0,0.1435
1243.0,0.1424
1244.0,0.1431
1245.0,0.1439
1246.0,0.1431
1247.0,0.1423
1248.0,0.1417
1249.0,0.1426
1250.0,0.1414
1251.0,0.139
1252.0,0.1398
1253.0,0.1374
1254.0,0.135
1255.0,0.1393
1256.0,0.133
1257.0,0.1317
1258.0,0.1361
1259.0,0.1275
1260.0,0.1286
1261.0,0.1168
1262.0,0.111
1263.0,0.1111
1264.0,0.0973
1265.0,0.1104
1266.0,0.1031
1267.0,0.1071
1268.0,0.09818
1269.0,0.04247
1270.0,0.1059
1271.0,0.117
1272.0,0.1179
1273.0,0.1161
1274.0,0.1172
1275.0,0.1197
1276.0,0.1218
1277.0,0.1238
1278.0,0.128
1279.0,0.1267
1280.0,0.1252
1281.0,0.1203
1282.0,0.1174
1283.0,0.1261
1284.0,0.1289
1285.0,0.13
1286.0,0.1325
1287.0,0.129
1288.0,0.1294
1289.0,0.1225
1290.0,0.1284
1291.0,0.1308
1292.0,0.1177
1293.0,0.127
1294.0,0.1259
1295.0,0.1236
1296.0,0.1149
1297.0,0.1064
1298.0,0.1194
1299.0,0.1276
1300.0,0.1001
1301.0,0.1045
1302.0,0.1192
1303.0,0.09958
1304.0,0.07787
1305.0,0.1164
1306.0,0.1156
1307.0,0.08217
1308.0,0.101
1309.0,0.1135
1310.0,0.07996
1311.0,0.09513
1312.0,0.09158
1313.0,0.08809
1314.0,0.07629
1315.0,0.07374
1316.0,0.09225
1317.0,0.08638
1318.0,0.09694
1319.0,0.06739
1320.0,0.06692
1321.0,0.08093
1322.0,0.08014
1323.0,0.05366
1324.0,0.06644
1325.0,0.09002
1326.0,0.0731
1327.0,0.06852
1328.0,0.05675
1329.0,0.03699
1330.0,0.05114
1331.0,0.02507
1332.0,0.02752
1333.0,0.03938
1334.0,0.03724
1335.0,0.05289
1336.0,0.0384
1337.0,0.03307
1338.0,0.03539
1339.0,0.03601
1340.0,0.03677
1341.0,0.03177
1342.0,0.03391
1343.0,0.01679
1344.0,0.01066
1345.0,0.01493
1346.0,0.004617
1347.0,0.004253
1348.0,0.0001049
1349.0,0.0004702
1350.0,0.0005693
1351.0,5.672e-05
1352.0,4.929e-06
1353.0,1.293e-07
1354.0,7.691e-07
1355.0,1.833e-09
1356.0,6.238e-08
1357.0,9.408e-08
1358.0,2.213e-09
1359.0,2.136e-10
1360.0,8.715e-10
1361.0,8.24e-13
1362.0,2.247e-15
1363.0,1.054e-09
1364.0,4.447e-10
1365.0,7.839e-16
1366.0,4.76e-09
1367.0,2.153e-09
1368.0,6.052e-18
1369.0,1.642e-10
1370.0,7.687e-11
1371.0,4.266e-12
1372.0,1.191e-09
1373.0,3.436e-08
1374.0,2.525e-07
1375.0,3.867e-07
1376.0,7.183e-07
1377.0,2.955e-07
1378.0,3.103e-06
1379.0,1.291e-07
1380.0,1.157e-07
1381.0,2.585e-09
1382.0,1e-09
1383.0,1.415e-11
1384.0,1.733e-10
1385.0,1.237e-09
1386.0,8.105e-10
1387.0,1.66e-07
1388.0,4.443e-09
1389.0,1.112e-06
1390.0,8.718e-07
1391.0,5.687e-07
1392.0,3.67e-08
1393.0,2.561e-07
1394.0,5.051e-08
1395.0,3.051e-10
1396.0,1.077e-12
1397.0,8.111e-08
1398.0,3.044e-06
1399.0,2.064e-06
1400.0,4.579e-13
1401.0,1.917e-12
1402.0,1.981e-05
1403.0,1.884e-05
1404.0,4.949e-06
1405.0,1.249e-10
1406.0,8.244e-06
1407.0,1.353e-06
1408.0,7.401e-06
1409.0,1.364e-06
1410.0,1.995e-06
1411.0,1.761e-05
1412.0,3.295e-05
1413.0,0.0007248
1414.0,1.753e-06
1415.0,6.523e-07
1416.0,0.002309
1417.0,0.00043
1418.0,0.0003654
1419.0,5.074e-05
1420.0,0.0002196
1421.0,0.0002963
1422.0,0.003013
1423.0,0.0005346
1424.0,0.001142
1425.0,0.001409
1426.0,0.002126
1427.0,0.004924
1428.0,8.725e-05
1429.0,0.003007
1430.0,0.007045
