interpolation:linear
wavelength,value
280.0,4.335e-22
280.5,1.4170000000000002e-20
281.0,7.577000000000001e-20
281.5,4.527e-19
282.0,7.491e-19
282.5,1.856e-18
283.0,5.858e-18
283.5,9.526e-18
284.0,1.56e-16
284.5,4.538e-16
285.0,7.764e-16
285.5,3.848e-15
286.0,1.548e-14
286.5,6.945e-14
287.0,1.987e-13
287.5,7.638e-13
288.0,2.564e-12
288.5,7.8e-12
289.0,2.084e-11
289.5,6.303e-11
290.0,1.751e-10
290.5,3.571e-10
291.0,7.668e-10
291.5,2.201e-09
292.0,4.615e-09
292.5,6.485e-09
293.0,1.393e-08
293.5,3.396e-08
294.0,5.316e-08
294.5,7.22e-08
295.0,1.224e-07
295.5,2.165e-07
296.0,4.244e-07
296.5,6.044e-07
297.0,8.316e-07
297.5,2.299e-06
298.0,3.734e-06
298.5,3.857e-06
299.0,8.756e-06
299.5,1.543e-05
300.0,1.762e-05
300.5,2.663e-05
301.0,5.204e-05
301.5,8.969e-05
302.0,8.013e-05
302.5,0.0001619
303.0,0.0003051
303.5,0.0003984
304.0,0.0003867
304.5,0.0006287
305.0,0.001077
305.5,0.001334
306.0,0.001332
306.5,0.001746
307.0,0.002903
307.5,0.004316
308.0,0.004643
308.5,0.005798
309.0,0.005947
309.5,0.007352
310.0,0.007653
310.5,0.01262
311.0,0.0163
311.5,0.01593
312.0,0.01695
312.5,0.02149
313.0,0.02381
313.5,0.02267
314.0,0.02977
314.5,0.02815
315.0,0.03742
315.5,0.03035
316.0,0.02792
316.5,0.04192
317.0,0.05201
317.5,0.05346
318.0,0.04299
318.5,0.05655
319.0,0.06909
319.5,0.05377
320.0,0.06453
320.5,0.08564
321.0,0.08037
321.5,0.07748
322.0,0.07809
322.5,0.06814
323.0,0.07041
323.5,0.08945
324.0,0.105
324.5,0.1051
325.0,0.08923
325.5,0.1182
326.0,0.1457
326.5,0.1487
327.0,0.1472
327.5,0.141
328.0,0.1225
328.5,0.1327
329.0,0.1628
329.5,0.1862
330.0,0.1868
330.5,0.1468
331.0,0.1487
331.5,0.1533
332.0,0.169
332.5,0.1687
333.0,0.1674
333.5,0.1493
334.0,0.1527
334.5,0.1792
335.0,0.1701
335.5,0.1991
336.0,0.1379
336.5,0.1604
337.0,0.1308
337.5,0.1623
338.0,0.1607
338.5,0.1862
339.0,0.1845
339.5,0.1775
340.0,0.2081
340.5,0.1879
341.0,0.1837
341.5,0.1689
342.0,0.2021
342.5,0.1893
343.0,0.208
343.5,0.1958
344.0,0.1445
344.5,0.1462
345.0,0.1939
345.5,0.1983
346.0,0.1687
346.5,0.1912
347.0,0.2052
347.5,0.1659
348.0,0.1895
348.5,0.1896
349.0,0.176
349.5,0.1744
350.0,0.2159
350.5,0.2278
351.0,0.2035
351.5,0.1976
352.0,0.2125
352.5,0.1661
353.0,0.2094
353.5,0.2241
354.0,0.2328
354.5,0.2362
355.0,0.2355
355.5,0.2129
356.0,0.2229
356.5,0.1904
357.0,0.1574
357.5,0.1928
358.0,0.1529
358.5,0.1307
359.0,0.1828
359.5,0.233
360.0,0.2471
360.5,0.1977
361.0,0.1804
361.5,0.2079
362.0,0.18
362.5,0.2494
363.0,0.2242
363.5,0.2067
364.0,0.2529
364.5,0.2163
365.0,0.2204
365.5,0.2769
366.0,0.2936
366.5,0.2761
367.0,0.269
367.5,0.2793
368.0,0.2446
368.5,0.247
369.0,0.2669
369.5,0.2847
370.0,0.3037
370.5,0.2359
371.0,0.2522
371.5,0.3157
372.0,0.2096
372.5,0.2515
373.0,0.256
373.5,0.1667
374.0,0.2424
374.5,0.2009
375.0,0.1954
375.5,0.2918
376.0,0.242
376.5,0.2509
377.0,0.2659
377.5,0.3113
378.0,0.3375
378.5,0.3192
379.0,0.2635
379.5,0.2407
380.0,0.2504
380.5,0.3036
381.0,0.3045
381.5,0.2416
382.0,0.2147
382.5,0.1832
383.0,0.1698
383.5,0.1636
384.0,0.1806
384.5,0.2658
385.0,0.2638
385.5,0.2458
386.0,0.2107
386.5,0.277
387.0,0.2303
387.5,0.2588
388.0,0.2391
388.5,0.2365
389.0,0.2554
389.5,0.3096
390.0,0.3109
390.5,0.2863
391.0,0.3372
391.5,0.3441
392.0,0.29
392.5,0.2598
393.0,0.1447
393.5,0.1052
394.0,0.2143
394.5,0.2726
395.0,0.3328
395.5,0.3382
396.0,0.2934
396.5,0.1717
397.0,0.1289
397.5,0.2623
398.0,0.3675
398.5,0.38
399.0,0.4119
399.5,0.4108
400.0,0.4267
401.0,0.4309
402.0,0.4553
403.0,0.4331
404.0,0.4268
405.0,0.4271
406.0,0.4208
407.0,0.4146
408.0,0.431
409.0,0.4617
410.0,0.4039
411.0,0.438
412.0,0.4711
413.0,0.4597
414.0,0.4659
415.0,0.4677
416.0,0.4765
417.0,0.4651
418.0,0.4569
419.0,0.4634
420.0,0.4617
421.0,0.4835
422.0,0.46
423.0,0.4497
424.0,0.4759
425.0,0.4755
426.0,0.4639
427.0,0.4555
428.0,0.444
429.0,0.4212
430.0,0.369
431.0,0.3658
432.0,0.4728
433.0,0.4758
434.0,0.4421
435.0,0.4618
436.0,0.5211
437.0,0.5147
438.0,0.4691
439.0,0.4849
440.0,0.5008
441.0,0.5195
442.0,0.5574
443.0,0.5429
444.0,0.5552
445.0,0.5433
446.0,0.5193
447.0,0.5621
448.0,0.5707
449.0,0.5738
450.0,0.5904
451.0,0.6126
452.0,0.5906
453.0,0.5559
454.0,0.5809
455.0,0.5846
456.0,0.5989
457.0,0.609
458.0,0.5879
459.0,0.5852
460.0,0.5866
461.0,0.6004
462.0,0.6056
463.0,0.6015
464.0,0.5924
465.0,0.5857
466.0,0.5919
467.0,0.581
468.0,0.5879
469.0,0.5911
470.0,0.5722
471.0,0.5717
472.0,0.6024
473.0,0.5947
474.0,0.5951
475.0,0.5997
476.0,0.5811
477.0,0.5822
478.0,0.5986
479.0,0.5955
480.0,0.597
481.0,0.6088
482.0,0.6127
483.0,0.6061
484.0,0.5942
485.0,0.5666
486.0,0.4959
487.0,0.5202
488.0,0.5707
489.0,0.5722
490.0,0.6024
491.0,0.5923
492.0,0.5595
493.0,0.5779
494.0,0.5838
495.0,0.5889
496.0,0.5926
497.0,0.6017
498.0,0.5735
499.0,0.5806
500.0,0.5633
501.0,0.5525
502.0,0.5439
503.0,0.5651
504.0,0.5481
505.0,0.5699
506.0,0.5882
507.0,0.5599
508.0,0.5433
509.0,0.5592
510.0,0.5568
511.0,0.5723
512.0,0.5788
513.0,0.548
514.0,0.5445
515.0,0.5391
516.0,0.5376
517.0,0.4779
518.0,0.5024
519.0,0.5269
520.0,0.5459
521.0,0.551
522.0,0.5513
523.0,0.5412
524.0,0.5601
525.0,0.566
526.0,0.5405
527.0,0.5087
528.0,0.5376
529.0,0.5663
530.0,0.5579
531.0,0.5659
532.0,0.5464
533.0,0.5304
534.0,0.5463
535.0,0.5585
536.0,0.564
537.0,0.542
538.0,0.5518
539.0,0.5471
540.0,0.5244
541.0,0.527
542.0,0.5432
543.0,0.5381
544.0,0.5467
545.0,0.5452
546.0,0.5469
547.0,0.5473
548.0,0.541
549.0,0.5429
550.0,0.5494
551.0,0.5428
552.0,0.5466
553.0,0.5367
554.0,0.5495
555.0,0.5504
556.0,0.5431
557.0,0.526
558.0,0.5216
559.0,0.5114
560.0,0.5175
561.0,0.5238
562.0,0.5195
563.0,0.5331
564.0,0.5181
565.0,0.5132
566.0,0.5053
567.0,0.5143
568.0,0.5083
569.0,0.4936
570.0,0.4938
571.0,0.4915
572.0,0.5015
573.0,0.5065
574.0,0.5045
575.0,0.4944
576.0,0.49
577.0,0.4956
578.0,0.4889
579.0,0.4921
580.0,0.5035
581.0,0.5076
582.0,0.5185
583.0,0.5209
584.0,0.5261
585.0,0.5137
586.0,0.5032
587.0,0.5134
588.0,0.4976
589.0,0.4343
590.0,0.4547
591.0,0.4851
592.0,0.4766
593.0,0.4867
594.0,0.4821
595.0,0.4677
596.0,0.4916
597.0,0.4849
598.0,0.4853
599.0,0.4864
600.0,0.4885
601.0,0.4855
602.0,0.4824
603.0,0.4909
604.0,0.4993
605.0,0.497
606.0,0.4956
607.0,0.5011
608.0,0.4962
609.0,0.4976
610.0,0.4946
611.0,0.4975
612.0,0.4965
613.0,0.4905
614.0,0.4843
615.0,0.4954
616.0,0.4795
617.0,0.4788
618.0,0.4975
619.0,0.4926
620.0,0.4958
621.0,0.4958
622.0,0.4896
623.0,0.4817
624.0,0.4739
625.0,0.4728
626.0,0.4797
627.0,0.4838
628.0,0.4367
629.0,0.4671
630.0,0.4558
631.0,0.4712
632.0,0.4666
633.0,0.4829
634.0,0.4799
635.0,0.4882
636.0,0.4827
637.0,0.4914
638.0,0.4973
639.0,0.4923
640.0,0.4883
641.0,0.4885
642.0,0.4869
643.0,0.4936
644.0,0.4926
645.0,0.4931
646.0,0.4798
647.0,0.4699
648.0,0.4703
649.0,0.4607
650.0,0.4684
651.0,0.4896
652.0,0.4638
653.0,0.4834
654.0,0.4785
655.0,0.4579
656.0,0.4078
657.0,0.4191
658.0,0.4714
659.0,0.4755
660.0,0.4778
661.0,0.4813
662.0,0.4813
663.0,0.4722
664.0,0.4793
665.0,0.4809
666.0,0.4817
667.0,0.4819
668.0,0.4827
669.0,0.4906
670.0,0.4887
671.0,0.4889
672.0,0.485
673.0,0.4925
674.0,0.4909
675.0,0.4867
676.0,0.4903
677.0,0.4856
678.0,0.4872
679.0,0.4796
680.0,0.4835
681.0,0.4804
682.0,0.4799
683.0,0.479
684.0,0.4766
685.0,0.4809
686.0,0.4778
687.0,0.2545
688.0,0.3259
689.0,0.328
690.0,0.354
691.0,0.3843
692.0,0.408
693.0,0.404
694.0,0.4017
695.0,0.4263
696.0,0.4273
697.0,0.4628
698.0,0.4554
699.0,0.4382
700.0,0.4325
701.0,0.4258
702.0,0.4312
703.0,0.4325
704.0,0.4502
705.0,0.4508
706.0,0.4519
707.0,0.4528
708.0,0.4536
709.0,0.4568
710.0,0.4555
711.0,0.4558
712.0,0.4556
713.0,0.4499
714.0,0.4519
715.0,0.4351
716.0,0.4347
717.0,0.3539
718.0,0.3229
719.0,0.2939
720.0,0.3056
721.0,0.3506
722.0,0.4154
723.0,0.3796
724.0,0.3333
725.0,0.3251
726.0,0.3411
727.0,0.3518
728.0,0.3232
729.0,0.3433
730.0,0.3618
731.0,0.3445
732.0,0.377
733.0,0.407
734.0,0.4191
735.0,0.4091
736.0,0.4083
737.0,0.41
738.0,0.4224
739.0,0.4141
740.0,0.4267
741.0,0.4236
742.0,0.4251
743.0,0.4363
744.0,0.4357
745.0,0.4364
746.0,0.4384
747.0,0.4395
748.0,0.4387
749.0,0.4337
750.0,0.4335
751.0,0.4291
752.0,0.4311
753.0,0.4333
754.0,0.4343
755.0,0.4318
756.0,0.4317
757.0,0.4323
758.0,0.4268
759.0,0.4143
760.0,0.02671
761.0,0.01016
762.0,0.1491
763.0,0.05089
764.0,0.09531
765.0,0.1489
766.0,0.2089
767.0,0.2939
768.0,0.3662
769.0,0.3802
770.0,0.4005
771.0,0.407
772.0,0.4089
773.0,0.412
774.0,0.4103
775.0,0.4073
776.0,0.4123
777.0,0.4069
778.0,0.4044
779.0,0.4048
780.0,0.4026
781.0,0.4031
782.0,0.4056
783.0,0.3987
784.0,0.4007
785.0,0.3975
786.0,0.4016
787.0,0.3916
788.0,0.3854
789.0,0.3851
790.0,0.3708
791.0,0.378
792.0,0.3759
793.0,0.3693
794.0,0.3798
795.0,0.3851
796.0,0.3676
797.0,0.3677
798.0,0.384
799.0,0.3805
800.0,0.3725
801.0,0.37
802.0,0.3689
803.0,0.3654
804.0,0.3666
805.0,0.3671
806.0,0.3802
807.0,0.375
808.0,0.3756
809.0,0.3664
810.0,0.362
811.0,0.3595
812.0,0.3454
813.0,0.3365
814.0,0.2851
815.0,0.2841
816.0,0.2631
817.0,0.2687
818.0,0.2561
819.0,0.2957
820.0,0.2751
821.0,0.3353
822.0,0.3235
823.0,0.1993
824.0,0.3089
825.0,0.3294
826.0,0.3124
827.0,0.3342
828.0,0.2704
829.0,0.3115
830.0,0.3063
831.0,0.3075
832.0,0.2957
833.0,0.3207
834.0,0.3052
835.0,0.3448
836.0,0.3237
837.0,0.346
838.0,0.332
839.0,0.3414
840.0,0.3497
841.0,0.3434
842.0,0.3462
843.0,0.3483
844.0,0.3422
845.0,0.3554
846.0,0.3542
847.0,0.3483
848.0,0.3452
849.0,0.3353
850.0,0.3214
851.0,0.3392
852.0,0.3373
853.0,0.3255
854.0,0.2804
855.0,0.309
856.0,0.3373
857.0,0.3455
858.0,0.3426
859.0,0.3434
860.0,0.3443
861.0,0.3423
862.0,0.3479
863.0,0.3561
864.0,0.3383
865.0,0.3355
866.0,0.3017
867.0,0.3148
868.0,0.3426
869.0,0.3356
870.0,0.3452
871.0,0.3404
872.0,0.3393
873.0,0.3386
874.0,0.3346
875.0,0.3278
876.0,0.3311
877.0,0.3346
878.0,0.338
879.0,0.3329
880.0,0.3257
881.0,0.3204
882.0,0.3271
883.0,0.3286
884.0,0.3269
885.0,0.3294
886.0,0.3121
887.0,0.3168
888.0,0.3207
889.0,0.3259
890.0,0.3212
891.0,0.3217
892.0,0.3099
893.0,0.2977
894.0,0.2819
895.0,0.2598
896.0,0.2429
897.0,0.201
898.0,0.2232
899.0,0.1612
900.0,0.2335
901.0,0.1689
902.0,0.2098
903.0,0.2077
904.0,0.2797
905.0,0.2677
906.0,0.2484
907.0,0.1895
908.0,0.1956
909.0,0.2168
910.0,0.1823
911.0,0.2012
912.0,0.2112
913.0,0.1845
914.0,0.1849
915.0,0.1998
916.0,0.1677
917.0,0.2221
918.0,0.1712
919.0,0.2294
920.0,0.2384
921.0,0.2478
922.0,0.2145
923.0,0.2401
924.0,0.2182
925.0,0.2139
926.0,0.2152
927.0,0.2477
928.0,0.1621
929.0,0.1428
930.0,0.1042
931.0,0.09911
932.0,0.06344
933.0,0.04814
934.0,0.01967
935.0,0.05197
936.0,0.02791
937.0,0.02806
938.0,0.03611
939.0,0.09583
940.0,0.1212
941.0,0.08395
942.0,0.1012
943.0,0.06087
944.0,0.06983
945.0,0.0882
946.0,0.03741
947.0,0.08654
948.0,0.06282
949.0,0.1234
950.0,0.02413
951.0,0.1226
952.0,0.05643
953.0,0.07912
954.0,0.1042
955.0,0.08078
956.0,0.08513
957.0,0.05594
958.0,0.129
959.0,0.09357
960.0,0.1049
961.0,0.1248
962.0,0.1176
963.0,0.1418
964.0,0.1281
965.0,0.1413
966.0,0.1404
967.0,0.1389
968.0,0.2106
969.0,0.2165
970.0,0.1965
971.0,0.2358
972.0,0.2232
973.0,0.1834
974.0,0.1731
975.0,0.1834
976.0,0.168
977.0,0.2038
978.0,0.1883
979.0,0.2004
980.0,0.1867
981.0,0.2347
982.0,0.2203
983.0,0.2094
984.0,0.2468
985.0,0.2194
986.0,0.2542
987.0,0.2456
988.0,0.2455
989.0,0.2555
990.0,0.2438
991.0,0.2559
992.0,0.2577
993.0,0.2484
994.0,0.258
995.0,0.2582
996.0,0.2565
997.0,0.2572
998.0,0.2557
999.0,0.255
1000.0,0.2523
1001.0,0.2564
1002.0,0.2459
1003.0,0.2517
1004.0,0.2446
1005.0,0.2369
1006.0,0.2455
1007.0,0.2511
1008.0,0.2491
1009.0,0.2471
1010.0,0.2457
1011.0,0.2499
1012.0,0.2471
1013.0,0.2495
1014.0,0.2477
1015.0,0.246
1016.0,0.2448
1017.0,0.2453
1018.0,0.2448
1019.0,0.2382
1020.0,0.2433
1021.0,0.2432
1022.0,0.2408
1023.0,0.2433
1024.0,0.2388
1025.0,0.2436
1026.0,0.2422
1027.0,0.2417
1028.0,0.2411
1029.0,0.2381
1030.0,0.2402
1031.0,0.2391
1032.0,0.2385
1033.0,0.2349
1034.0,0.235
1035.0,0.2357
1036.0,0.2367
1037.0,0.233
1038.0,0.2339
1039.0,0.2337
1040.0,0.2327
1041.0,0.2336
1042.0,0.2319
1043.0,0.2311
1044.0,0.2318
1045.0,0.2286
1046.0,0.226
1047.0,0.2279
1048.0,0.2291
1049.0,0.2281
1050.0,0.227
1051.0,0.2265
1052.0,0.2254
1053.0,0.2235
1054.0,0.2238
1055.0,0.2237
1056.0,0.2227
1057.0,0.2218
1058.0,0.2162
1059.0,0.2162
1060.0,0.2158
1061.0,0.2154
1062.0,0.2163
1063.0,0.214
1064.0,0.2166
1065.0,0.2145
1066.0,0.2107
1067.0,0.2133
1068.0,0.2082
1069.0,0.2021
1070.0,0.2086
1071.0,0.2131
1072.0,0.2097
1073.0,0.2068
1074.0,0.2136
1075.0,0.1993
1076.0,0.2132
1077.0,0.2074
1078.0,0.2026
1079.0,0.2104
1080.0,0.2043
1081.0,0.1959
1082.0,0.2021
1083.0,0.2035
1084.0,0.1948
1085.0,0.205
1086.0,0.1824
1087.0,0.1914
1088.0,0.2027
1089.0,0.1931
1090.0,0.1871
1091.0,0.2012
1092.0,0.2013
1093.0,0.1617
1094.0,0.1831
1095.0,0.1691
1096.0,0.1594
1097.0,0.1967
1098.0,0.1556
1099.0,0.1637
1100.0,0.1487
1101.0,0.1518
1102.0,0.1425
1103.0,0.1394
1104.0,0.1398
1105.0,0.1592
1106.0,0.1077
1107.0,0.1485
1108.0,0.1176
1109.0,0.1193
1110.0,0.1456
1111.0,0.08779
1112.0,0.1189
1113.0,0.06514
1114.0,0.07335
1115.0,0.06007
1116.0,0.04241
1117.0,0.01075
1118.0,0.04754
1119.0,0.01916
1120.0,0.02352
1121.0,0.03353
1122.0,0.01071
1123.0,0.02144
1124.0,0.01803
1125.0,0.02462
1126.0,0.005443
1127.0,0.02809
1128.0,0.01314
1129.0,0.0143
1130.0,0.008653
1131.0,0.06358
1132.0,0.04782
1133.0,0.02481
1134.0,0.004099
1135.0,0.001685
1136.0,0.01889
1137.0,0.06028
1138.0,0.04147
1139.0,0.07417
1140.0,0.05721
1141.0,0.03956
1142.0,0.04772
1143.0,0.07318
1144.0,0.02023
1145.0,0.02393
1146.0,0.02575
1147.0,0.006003
1148.0,0.06267
1149.0,0.04661
1150.0,0.02281
1151.0,0.04114
1152.0,0.05475
1153.0,0.05666
1154.0,0.02338
1155.0,0.0772
1156.0,0.06697
1157.0,0.08022
1158.0,0.07916
1159.0,0.08818
1160.0,0.07295
1161.0,0.09695
1162.0,0.09672
1163.0,0.1436
1164.0,0.1186
1165.0,0.1072
1166.0,0.1102
1167.0,0.1223
1168.0,0.1226
1169.0,0.1268
1170.0,0.1418
1171.0,0.1381
1172.0,0.1433
1173.0,0.1416
1174.0,0.09202
1175.0,0.1406
1176.0,0.16
1177.0,0.1499
1178.0,0.1057
1179.0,0.1614
1180.0,0.1382
1181.0,0.1429
1182.0,0.09082
1183.0,0.1419
1184.0,0.1303
1185.0,0.1233
1186.0,0.1543
1187.0,0.1444
1188.0,0.091
1189.0,0.1341
1190.0,0.1513
1191.0,0.1386
1192.0,0.1539
1193.0,0.1458
1194.0,0.1514
1195.0,0.1397
1196.0,0.1326
1197.0,0.153
1198.0,0.1383
1199.0,0.1105
1200.0,0.1438
1201.0,0.1361
1202.0,0.1375
1203.0,0.1351
1204.0,0.1151
1205.0,0.1427
1206.0,0.1611
1207.0,0.1361
1208.0,0.1361
1209.0,0.1393
1210.0,0.1468
1211.0,0.1372
1212.0,0.1317
1213.0,0.154
1214.0,0.1363
1215.0,0.1333
1216.0,0.1538
1217.0,0.1484
1218.0,0.1525
1219.0,0.1498
1220.0,0.1528
1221.0,0.1551
1222.0,0.1505
1223.0,0.1485
1224.0,0.1461
1225.0,0.1539
1226.0,0.156
1227.0,0.1402
1228.0,0.1576
1229.0,0.156
1230.0,0.1527
1231.0,0.1595
1232.0,0.1584
1233.0,0.1497
1234.0,0.16
1235.0,0.1585
1236.0,0.1601
1237.0,0.1565
1238.0,0.1595
1239.0,0.1575
1240.0,0.1582
1241.0,0.1567
1242.0,0.1571
1243.0,0.1558
1244.0,0.1567
1245.0,0.1575
1246.0,0.1566
1247.0,0.1558
1248.0,0.1552
1249.0,0.1561
1250.0,0.1549
1251.0,0.1524
1252.0,0.1531
1253.0,0.1507
1254.0,0.1483
1255.0,0.1526
1256.0,0.1462
1257.0,0.1449
1258.0,0.1494
1259.0,0.1407
1260.0,0.1418
1261.0,0.1298
1262.0,0.1238
1263.0,0.1239
1264.0,0.1097
1265.0,0.1232
1266.0,0.1157
1267.0,0.1197
1268.0,0.1105
1269.0,0.05128
1270.0,0.1185
1271.0,0.1298
1272.0,0.1307
1273.0,0.1289
1274.0,0.1299
1275.0,0.1325
1276.0,0.1346
1277.0,0.1366
1278.0,0.1408
1279.0,0.1394
1280.0,0.1378
1281.0,0.1322
1282.0,0.1287
1283.0,0.1383
1284.0,0.1414
1285.0,0.1425
1286.0,0.1451
1287.0,0.1416
1288.0,0.142
1289.0,0.1349
1290.0,0.1409
1291.0,0.1433
1292.0,0.13
1293.0,0.1394
1294.0,0.1382
1295.0,0.1361
1296.0,0.1271
1297.0,0.1182
1298.0,0.1317
1299.0,0.14
1300.0,0.1113
1301.0,0.116
1302.0,0.1313
1303.0,0.1106
1304.0,0.08781
1305.0,0.1283
1306.0,0.1276
1307.0,0.09212
1308.0,0.1119
1309.0,0.1256
1310.0,0.08981
1311.0,0.1057
1312.0,0.1019
1313.0,0.09847
1314.0,0.08581
1315.0,0.08323
1316.0,0.1028
1317.0,0.0965
1318.0,0.1077
1319.0,0.07642
1320.0,0.0756
1321.0,0.09078
1322.0,0.09023
1323.0,0.06172
1324.0,0.07526
1325.0,0.1006
1326.0,0.08244
1327.0,0.07753
1328.0,0.06471
1329.0,0.04331
1330.0,0.05914
1331.0,0.03012
1332.0,0.03273
1333.0,0.04661
1334.0,0.04309
1335.0,0.06102
1336.0,0.04501
1337.0,0.03885
1338.0,0.0417
1339.0,0.04229
1340.0,0.0428
1341.0,0.03786
1342.0,0.04026
1343.0,0.02108
1344.0,0.01322
1345.0,0.01872
1346.0,0.006311
1347.0,0.005931
1348.0,0.0001709
1349.0,0.0007456
1350.0,0.0008876
1351.0,0.0001018
1352.0,1.049e-05
1353.0,2.699e-07
1354.0,1.602e-06
1355.0,3.055e-09
1356.0,1.294e-07
1357.0,1.96e-07
1358.0,3.772e-09
1359.0,2.588e-10
1360.0,1.299e-09
1361.0,8.491e-13
1362.0,2.273e-15
1363.0,1.344e-09
1364.0,5.848e-10
1365.0,7.865e-16
1366.0,6.606e-09
1367.0,3.371e-09
1368.0,6.063e-18
1369.0,2.159e-10
1370.0,9.037e-11
1371.0,4.674e-12
1372.0,1.897e-09
1373.0,6.795e-08
1374.0,5.386e-07
1375.0,8.35e-07
1376.0,1.498e-06
1377.0,6.174e-07
1378.0,6.687e-06
1379.0,2.668e-07
1380.0,2.454e-07
1381.0,5.284e-09
1382.0,1.528e-09
1383.0,1.979e-11
1384.0,2.172e-10
1385.0,2.294e-09
1386.0,1.103e-09
1387.0,3.438e-07
1388.0,9.155e-09
1389.0,2.418e-06
1390.0,1.925e-06
1391.0,1.234e-06
1392.0,7.729e-08
1393.0,5.405e-07
1394.0,9.916e-08
1395.0,5.219e-10
1396.0,1.133e-12
1397.0,1.722e-07
1398.0,6.699e-06
1399.0,4.497e-06
1400.0,4.683e-13
1401.0,2.051e-12
1402.0,3.582e-05
1403.0,3.593e-05
1404.0,9.753e-06
1405.0,1.878e-10
1406.0,1.745e-05
1407.0,2.5e-06
1408.0,1.543e-05
1409.0,3.022e-06
1410.0,4.036e-06
1411.0,3.319e-05
1412.0,5.874e-05
1413.0,0.001161
1414.0,3.484e-06
1415.0,1.334e-06
1416.0,0.003254
1417.0,0.0006482
1418.0,0.000595
1419.0,8.386e-05
1420.0,0.0003582
1421.0,0.000452
1422.0,0.00426
1423.0,0.00076
1424.0,0.001576
1425.0,0.002021
1426.0,0.00289
1427.0,0.006507
1428.0,0.0001458
1429.0,0.004118
