interpolation:linear
wavelength,value
280.0,9.827e-21
280.5,2.954e-19
281.0,1.538e-18
281.5,4.622e-19
282.0,1.498e-18
282.5,3.987e-18
283.0,1.289e-17
283.5,2.109e-17
284.0,3.343e-16
284.5,9.521e-16
285.0,1.851e-15
285.5,9.833e-15
286.0,4.015e-14
286.5,1.814e-13
287.0,5.186e-13
287.5,1.972e-12
288.0,5.222e-12
288.5,1.883e-11
289.0,5.731e-11
289.5,1.935e-10
290.0,5.795e-10
290.5,1.252e-09
291.0,2.86e-09
291.5,8.978e-09
292.0,2.176e-08
292.5,3.44e-08
293.0,8.624e-08
293.5,2.622e-07
294.0,4.844e-07
294.5,6.48e-07
295.0,1.298e-06
295.5,3.549e-06
296.0,7.025e-06
296.5,1.008e-05
297.0,1.395e-05
297.5,3.867e-05
298.0,6.274e-05
298.5,6.459e-05
299.0,0.0001457
299.5,0.0002519
300.0,0.0002839
300.5,0.0004224
301.0,0.0008007
301.5,0.001341
302.0,0.001182
302.5,0.002285
303.0,0.004041
303.5,0.005036
304.0,0.004694
304.5,0.006854
305.0,0.01007
305.5,0.01131
306.0,0.01086
306.5,0.01335
307.0,0.01923
307.5,0.02486
308.0,0.02614
308.5,0.03044
309.0,0.0297
309.5,0.03332
310.0,0.03317
310.5,0.05348
311.0,0.06662
311.5,0.0641
312.0,0.06302
312.5,0.07582
313.0,0.08175
313.5,0.07983
314.0,0.09845
314.5,0.08569
315.0,0.1122
315.5,0.09476
316.0,0.08151
316.5,0.1155
317.0,0.1435
317.5,0.1499
318.0,0.1159
318.5,0.1414
319.0,0.1663
319.5,0.1375
320.0,0.1665
320.5,0.2047
321.0,0.1793
321.5,0.1716
322.0,0.1862
322.5,0.1618
323.0,0.1594
323.5,0.1937
324.0,0.2257
324.5,0.2303
325.0,0.2001
325.5,0.255
326.0,0.311
326.5,0.3095
327.0,0.3092
327.5,0.2995
328.0,0.269
328.5,0.2798
329.0,0.3323
329.5,0.3763
330.0,0.3804
330.5,0.3064
331.0,0.3129
331.5,0.3165
332.0,0.3396
332.5,0.3349
333.0,0.3346
333.5,0.3044
334.0,0.3121
334.5,0.3581
335.0,0.3354
335.5,0.3918
336.0,0.2711
336.5,0.318
337.0,0.2616
337.5,0.3256
338.0,0.3164
338.5,0.3652
339.0,0.3614
339.5,0.3477
340.0,0.4088
340.5,0.3683
341.0,0.3592
341.5,0.3298
342.0,0.3942
342.5,0.3688
343.0,0.4056
343.5,0.382
344.0,0.2824
344.5,0.2852
345.0,0.3774
345.5,0.3853
346.0,0.3275
346.5,0.3708
347.0,0.3982
347.5,0.322
348.0,0.3671
348.5,0.3669
349.0,0.3404
349.5,0.3371
350.0,0.4169
350.5,0.4398
351.0,0.3929
351.5,0.382
352.0,0.4103
352.5,0.3202
353.0,0.4033
353.5,0.4313
354.0,0.4477
354.5,0.4541
355.0,0.4527
355.5,0.409
356.0,0.4279
356.5,0.3654
357.0,0.302
357.5,0.3697
358.0,0.293
358.5,0.2504
359.0,0.3503
359.5,0.4465
360.0,0.4734
360.5,0.3784
361.0,0.345
361.5,0.3972
362.0,0.3436
362.5,0.4755
363.0,0.4272
363.5,0.3935
364.0,0.4813
364.5,0.4115
365.0,0.4191
365.5,0.5261
366.0,0.5574
366.5,0.5238
367.0,0.5102
367.5,0.5295
368.0,0.4634
368.5,0.4677
369.0,0.5051
369.5,0.5385
370.0,0.5741
370.5,0.4456
371.0,0.4762
371.5,0.5959
372.0,0.3955
372.5,0.4743
373.0,0.4826
373.5,0.314
374.0,0.4563
374.5,0.378
375.0,0.3675
375.5,0.5487
376.0,0.4549
376.5,0.4715
377.0,0.4992
377.5,0.5841
378.0,0.6333
378.5,0.5986
379.0,0.4941
379.5,0.4514
380.0,0.4693
380.5,0.5686
381.0,0.5698
381.5,0.4518
382.0,0.4013
382.5,0.3421
383.0,0.3168
383.5,0.3052
384.0,0.3367
384.5,0.4952
385.0,0.4912
385.5,0.4575
386.0,0.3919
386.5,0.5149
387.0,0.4279
387.5,0.4806
388.0,0.4438
388.5,0.4388
389.0,0.4737
389.5,0.5738
390.0,0.576
390.5,0.5301
391.0,0.6241
391.5,0.6366
392.0,0.5363
392.5,0.4802
393.0,0.2672
393.5,0.1943
394.0,0.3954
394.5,0.5027
395.0,0.6135
395.5,0.6233
396.0,0.5405
396.5,0.316
397.0,0.2372
397.5,0.4824
398.0,0.6756
398.5,0.6984
399.0,0.7564
399.5,0.754
400.0,0.783
401.0,0.7947
402.0,0.8386
403.0,0.7968
404.0,0.7847
405.0,0.7847
406.0,0.7721
407.0,0.7598
408.0,0.7896
409.0,0.8452
410.0,0.7387
411.0,0.8002
412.0,0.8596
413.0,0.8384
414.0,0.8488
415.0,0.8512
416.0,0.8662
417.0,0.845
418.0,0.8295
419.0,0.8405
420.0,0.8369
421.0,0.8756
422.0,0.8324
423.0,0.8132
424.0,0.8602
425.0,0.8587
426.0,0.8365
427.0,0.821
428.0,0.7998
429.0,0.7576
430.0,0.6631
431.0,0.6573
432.0,0.8487
433.0,0.8535
434.0,0.7926
435.0,0.8278
436.0,0.9328
437.0,0.9203
438.0,0.8381
439.0,0.8669
440.0,0.8946
441.0,0.927
442.0,0.9943
443.0,0.9686
444.0,0.9896
445.0,0.9683
446.0,0.924
447.0,0.999
448.0,1.015
449.0,1.019
450.0,1.047
451.0,1.086
452.0,1.046
453.0,0.9842
454.0,1.027
455.0,1.034
456.0,1.058
457.0,1.076
458.0,1.039
459.0,1.034
460.0,1.037
461.0,1.061
462.0,1.069
463.0,1.062
464.0,1.044
465.0,1.031
466.0,1.041
467.0,1.022
468.0,1.034
469.0,1.039
470.0,1.006
471.0,1.005
472.0,1.059
473.0,1.045
474.0,1.047
475.0,1.056
476.0,1.024
477.0,1.027
478.0,1.056
479.0,1.049
480.0,1.051
481.0,1.071
482.0,1.076
483.0,1.063
484.0,1.041
485.0,0.9921
486.0,0.8672
487.0,0.9088
488.0,0.9971
489.0,1.0
490.0,1.052
491.0,1.034
492.0,0.9765
493.0,1.008
494.0,1.019
495.0,1.027
496.0,1.034
497.0,1.05
498.0,1.001
499.0,1.013
500.0,0.984
501.0,0.966
502.0,0.9525
503.0,0.9915
504.0,0.9667
505.0,1.001
506.0,1.033
507.0,0.9833
508.0,0.9525
509.0,0.9791
510.0,0.9739
511.0,0.9999
512.0,1.011
513.0,0.9566
514.0,0.95
515.0,0.9406
516.0,0.9383
517.0,0.8337
518.0,0.8765
519.0,0.9193
520.0,0.9528
521.0,0.9619
522.0,0.9628
523.0,0.9455
524.0,0.9794
525.0,0.991
526.0,0.9467
527.0,0.8922
528.0,0.9437
529.0,0.9948
530.0,0.9805
531.0,0.9951
532.0,0.9609
533.0,0.9328
534.0,0.9603
535.0,0.9812
536.0,0.9902
537.0,0.9511
538.0,0.9678
539.0,0.9597
540.0,0.9202
541.0,0.9264
542.0,0.9555
543.0,0.9453
544.0,0.9618
545.0,0.9588
546.0,0.9631
547.0,0.9626
548.0,0.951
549.0,0.9539
550.0,0.9652
551.0,0.9535
552.0,0.9601
553.0,0.9429
554.0,0.9655
555.0,0.9675
556.0,0.9549
557.0,0.9253
558.0,0.9184
559.0,0.9013
560.0,0.9126
561.0,0.9244
562.0,0.9178
563.0,0.943
564.0,0.9174
565.0,0.9095
566.0,0.8962
567.0,0.9132
568.0,0.9053
569.0,0.8841
570.0,0.8838
571.0,0.8784
572.0,0.8997
573.0,0.9094
574.0,0.9066
575.0,0.8897
576.0,0.8816
577.0,0.8911
578.0,0.8777
579.0,0.881
580.0,0.8975
581.0,0.9019
582.0,0.9188
583.0,0.921
584.0,0.9289
585.0,0.9061
586.0,0.8875
587.0,0.9071
588.0,0.8854
589.0,0.7853
590.0,0.8212
591.0,0.8685
592.0,0.8578
593.0,0.8701
594.0,0.8642
595.0,0.8432
596.0,0.8758
597.0,0.8664
598.0,0.864
599.0,0.8647
600.0,0.8658
601.0,0.8586
602.0,0.8527
603.0,0.8668
604.0,0.8811
605.0,0.8765
606.0,0.8728
607.0,0.8814
608.0,0.8716
609.0,0.8731
610.0,0.8667
611.0,0.8712
612.0,0.8686
613.0,0.8577
614.0,0.8459
615.0,0.8643
616.0,0.8358
617.0,0.834
618.0,0.8661
619.0,0.8573
620.0,0.8627
621.0,0.8636
622.0,0.8536
623.0,0.8406
624.0,0.8262
625.0,0.8243
626.0,0.8365
627.0,0.846
628.0,0.7918
629.0,0.8266
630.0,0.8076
631.0,0.8252
632.0,0.8153
633.0,0.8398
634.0,0.8315
635.0,0.8443
636.0,0.833
637.0,0.8466
638.0,0.8546
639.0,0.845
640.0,0.8367
641.0,0.8361
642.0,0.8323
643.0,0.8435
644.0,0.8407
645.0,0.8421
646.0,0.8226
647.0,0.8133
648.0,0.8141
649.0,0.7984
650.0,0.8017
651.0,0.8363
652.0,0.8021
653.0,0.8252
654.0,0.8159
655.0,0.7859
656.0,0.6963
657.0,0.715
658.0,0.8011
659.0,0.8068
660.0,0.8101
661.0,0.8158
662.0,0.8175
663.0,0.8013
664.0,0.8107
665.0,0.8112
666.0,0.8118
667.0,0.8109
668.0,0.8112
669.0,0.8237
670.0,0.8202
671.0,0.8199
672.0,0.8129
673.0,0.8251
674.0,0.822
675.0,0.8145
676.0,0.8201
677.0,0.8119
678.0,0.8142
679.0,0.801
680.0,0.8074
681.0,0.8021
682.0,0.8011
683.0,0.7995
684.0,0.7956
685.0,0.8023
686.0,0.7976
687.0,0.5366
688.0,0.6255
689.0,0.6277
690.0,0.6572
691.0,0.6904
692.0,0.7146
693.0,0.7088
694.0,0.7029
695.0,0.7311
696.0,0.7321
697.0,0.7759
698.0,0.7639
699.0,0.7463
700.0,0.7373
701.0,0.73
702.0,0.7348
703.0,0.7362
704.0,0.7593
705.0,0.7604
706.0,0.7596
707.0,0.7601
708.0,0.7618
709.0,0.7626
710.0,0.7627
711.0,0.7616
712.0,0.7592
713.0,0.7516
714.0,0.7544
715.0,0.7309
716.0,0.7314
717.0,0.6369
718.0,0.5854
719.0,0.5365
720.0,0.5622
721.0,0.619
722.0,0.7065
723.0,0.6586
724.0,0.5944
725.0,0.5852
726.0,0.6124
727.0,0.6205
728.0,0.5838
729.0,0.6048
730.0,0.64
731.0,0.6125
732.0,0.6543
733.0,0.6916
734.0,0.7078
735.0,0.6933
736.0,0.6924
737.0,0.6952
738.0,0.7052
739.0,0.6914
740.0,0.7092
741.0,0.702
742.0,0.7026
743.0,0.7204
744.0,0.7183
745.0,0.7184
746.0,0.7217
747.0,0.7232
748.0,0.7217
749.0,0.7135
750.0,0.7131
751.0,0.7058
752.0,0.7088
753.0,0.7124
754.0,0.714
755.0,0.71
756.0,0.7097
757.0,0.7107
758.0,0.7019
759.0,0.688
760.0,0.12
761.0,0.06394
762.0,0.3578
763.0,0.1817
764.0,0.2706
765.0,0.3579
766.0,0.4368
767.0,0.5486
768.0,0.6311
769.0,0.6439
770.0,0.6653
771.0,0.6705
772.0,0.6718
773.0,0.6765
774.0,0.6732
775.0,0.6681
776.0,0.6762
777.0,0.6673
778.0,0.6632
779.0,0.6638
780.0,0.6601
781.0,0.6607
782.0,0.6649
783.0,0.6533
784.0,0.6564
785.0,0.6516
786.0,0.6588
787.0,0.6475
788.0,0.6396
789.0,0.6393
790.0,0.6227
791.0,0.6277
792.0,0.623
793.0,0.613
794.0,0.6231
795.0,0.6338
796.0,0.6147
797.0,0.6155
798.0,0.633
799.0,0.6291
800.0,0.6183
801.0,0.6165
802.0,0.6147
803.0,0.61
804.0,0.6108
805.0,0.6088
806.0,0.6257
807.0,0.6182
808.0,0.6187
809.0,0.6073
810.0,0.6024
811.0,0.6034
812.0,0.5864
813.0,0.5744
814.0,0.5063
815.0,0.5032
816.0,0.4685
817.0,0.4769
818.0,0.4593
819.0,0.5126
820.0,0.4831
821.0,0.5636
822.0,0.5476
823.0,0.3742
824.0,0.5321
825.0,0.5538
826.0,0.5332
827.0,0.5623
828.0,0.4777
829.0,0.5299
830.0,0.523
831.0,0.5248
832.0,0.5089
833.0,0.5409
834.0,0.5221
835.0,0.5729
836.0,0.5488
837.0,0.5745
838.0,0.5568
839.0,0.5658
840.0,0.5781
841.0,0.57
842.0,0.5711
843.0,0.5707
844.0,0.5628
845.0,0.5818
846.0,0.5792
847.0,0.5684
848.0,0.5649
849.0,0.5489
850.0,0.5258
851.0,0.5568
852.0,0.5528
853.0,0.5321
854.0,0.4595
855.0,0.5048
856.0,0.5516
857.0,0.5639
858.0,0.5598
859.0,0.5603
860.0,0.5612
861.0,0.5582
862.0,0.5669
863.0,0.5803
864.0,0.5513
865.0,0.5465
866.0,0.4914
867.0,0.5128
868.0,0.558
869.0,0.5464
870.0,0.562
871.0,0.5544
872.0,0.5524
873.0,0.5513
874.0,0.5447
875.0,0.5337
876.0,0.5393
877.0,0.5447
878.0,0.5506
879.0,0.5422
880.0,0.5305
881.0,0.5226
882.0,0.5339
883.0,0.5356
884.0,0.5331
885.0,0.5371
886.0,0.5119
887.0,0.5174
888.0,0.525
889.0,0.531
890.0,0.5265
891.0,0.5256
892.0,0.5104
893.0,0.4944
894.0,0.477
895.0,0.4506
896.0,0.4245
897.0,0.3645
898.0,0.3978
899.0,0.3024
900.0,0.4074
901.0,0.317
902.0,0.3722
903.0,0.3758
904.0,0.4734
905.0,0.457
906.0,0.4277
907.0,0.3473
908.0,0.3542
909.0,0.3838
910.0,0.3392
911.0,0.3617
912.0,0.3782
913.0,0.3442
914.0,0.3413
915.0,0.37
916.0,0.3131
917.0,0.3977
918.0,0.321
919.0,0.405
920.0,0.4093
921.0,0.4257
922.0,0.3804
923.0,0.4112
924.0,0.3898
925.0,0.3813
926.0,0.3855
927.0,0.4318
928.0,0.3159
929.0,0.2881
930.0,0.2259
931.0,0.2141
932.0,0.1536
933.0,0.1244
934.0,0.06748
935.0,0.1276
936.0,0.07922
937.0,0.08022
938.0,0.09886
939.0,0.2074
940.0,0.25
941.0,0.188
942.0,0.2181
943.0,0.1429
944.0,0.151
945.0,0.194
946.0,0.09795
947.0,0.1947
948.0,0.1429
949.0,0.2614
950.0,0.07138
951.0,0.2575
952.0,0.1373
953.0,0.178
954.0,0.2191
955.0,0.1801
956.0,0.1753
957.0,0.1374
958.0,0.2496
959.0,0.1974
960.0,0.2212
961.0,0.249
962.0,0.2355
963.0,0.2721
964.0,0.2491
965.0,0.2712
966.0,0.2711
967.0,0.2699
968.0,0.364
969.0,0.3801
970.0,0.3487
971.0,0.4002
972.0,0.3826
973.0,0.3321
974.0,0.3151
975.0,0.3275
976.0,0.3104
977.0,0.3543
978.0,0.3361
979.0,0.3524
980.0,0.3311
981.0,0.3979
982.0,0.3801
983.0,0.3647
984.0,0.4104
985.0,0.3787
986.0,0.4178
987.0,0.4094
988.0,0.4087
989.0,0.4167
990.0,0.4062
991.0,0.4179
992.0,0.4204
993.0,0.4108
994.0,0.4203
995.0,0.4198
996.0,0.4179
997.0,0.4185
998.0,0.4166
999.0,0.415
1000.0,0.4121
1001.0,0.4173
1002.0,0.4055
1003.0,0.4099
1004.0,0.3998
1005.0,0.3852
1006.0,0.4002
1007.0,0.4088
1008.0,0.4065
1009.0,0.4042
1010.0,0.4025
1011.0,0.4067
1012.0,0.4031
1013.0,0.4057
1014.0,0.4029
1015.0,0.4002
1016.0,0.3984
1017.0,0.3994
1018.0,0.3979
1019.0,0.3893
1020.0,0.3958
1021.0,0.3953
1022.0,0.3922
1023.0,0.3963
1024.0,0.391
1025.0,0.3961
1026.0,0.3944
1027.0,0.3935
1028.0,0.3926
1029.0,0.388
1030.0,0.3907
1031.0,0.3891
1032.0,0.388
1033.0,0.3821
1034.0,0.3822
1035.0,0.3833
1036.0,0.3853
1037.0,0.3791
1038.0,0.3807
1039.0,0.3805
1040.0,0.379
1041.0,0.3805
1042.0,0.3778
1043.0,0.3766
1044.0,0.3779
1045.0,0.3728
1046.0,0.3687
1047.0,0.372
1048.0,0.374
1049.0,0.3726
1050.0,0.3709
1051.0,0.3704
1052.0,0.3689
1053.0,0.3659
1054.0,0.3667
1055.0,0.3669
1056.0,0.3656
1057.0,0.3644
1058.0,0.3554
1059.0,0.3558
1060.0,0.3553
1061.0,0.3548
1062.0,0.3567
1063.0,0.3531
1064.0,0.3573
1065.0,0.3547
1066.0,0.3477
1067.0,0.3522
1068.0,0.3445
1069.0,0.3339
1070.0,0.3452
1071.0,0.3506
1072.0,0.3465
1073.0,0.3415
1074.0,0.3505
1075.0,0.3326
1076.0,0.3502
1077.0,0.3437
1078.0,0.3371
1079.0,0.3446
1080.0,0.3384
1081.0,0.3274
1082.0,0.333
1083.0,0.3341
1084.0,0.3265
1085.0,0.3392
1086.0,0.3091
1087.0,0.3194
1088.0,0.3336
1089.0,0.3231
1090.0,0.3158
1091.0,0.3325
1092.0,0.3317
1093.0,0.2803
1094.0,0.3034
1095.0,0.2922
1096.0,0.2795
1097.0,0.324
1098.0,0.275
1099.0,0.287
1100.0,0.2664
1101.0,0.2699
1102.0,0.2575
1103.0,0.2549
1104.0,0.2552
1105.0,0.2804
1106.0,0.213
1107.0,0.266
1108.0,0.2246
1109.0,0.2252
1110.0,0.2636
1111.0,0.1775
1112.0,0.2235
1113.0,0.141
1114.0,0.1577
1115.0,0.1307
1116.0,0.1035
1117.0,0.03715
1118.0,0.1129
1119.0,0.05531
1120.0,0.06957
1121.0,0.09279
1122.0,0.0384
1123.0,0.0629
1124.0,0.05308
1125.0,0.06943
1126.0,0.02352
1127.0,0.07838
1128.0,0.04618
1129.0,0.04911
1130.0,0.03204
1131.0,0.1504
1132.0,0.1176
1133.0,0.07362
1134.0,0.01828
1135.0,0.00688
1136.0,0.06108
1137.0,0.1474
1138.0,0.1036
1139.0,0.1564
1140.0,0.13
1141.0,0.09851
1142.0,0.1137
1143.0,0.1622
1144.0,0.05578
1145.0,0.07103
1146.0,0.07659
1147.0,0.02626
1148.0,0.1403
1149.0,0.1115
1150.0,0.06008
1151.0,0.1028
1152.0,0.1272
1153.0,0.1244
1154.0,0.06873
1155.0,0.1631
1156.0,0.1465
1157.0,0.1649
1158.0,0.1631
1159.0,0.1764
1160.0,0.1503
1161.0,0.1859
1162.0,0.1868
1163.0,0.2533
1164.0,0.2169
1165.0,0.2043
1166.0,0.2031
1167.0,0.2214
1168.0,0.2238
1169.0,0.2292
1170.0,0.2493
1171.0,0.2431
1172.0,0.2476
1173.0,0.2488
1174.0,0.1773
1175.0,0.2431
1176.0,0.2674
1177.0,0.2566
1178.0,0.1925
1179.0,0.2696
1180.0,0.2405
1181.0,0.2482
1182.0,0.1711
1183.0,0.2444
1184.0,0.229
1185.0,0.2209
1186.0,0.2621
1187.0,0.2496
1188.0,0.1739
1189.0,0.2325
1190.0,0.2561
1191.0,0.2432
1192.0,0.2597
1193.0,0.2489
1194.0,0.2565
1195.0,0.2426
1196.0,0.2336
1197.0,0.2566
1198.0,0.2348
1199.0,0.1998
1200.0,0.2457
1201.0,0.237
1202.0,0.2356
1203.0,0.2336
1204.0,0.2044
1205.0,0.2411
1206.0,0.2663
1207.0,0.235
1208.0,0.2313
1209.0,0.2361
1210.0,0.2459
1211.0,0.2342
1212.0,0.2315
1213.0,0.2575
1214.0,0.237
1215.0,0.2325
1216.0,0.2567
1217.0,0.25
1218.0,0.2546
1219.0,0.2515
1220.0,0.2549
1221.0,0.2574
1222.0,0.2507
1223.0,0.2484
1224.0,0.2469
1225.0,0.2558
1226.0,0.2574
1227.0,0.2376
1228.0,0.2587
1229.0,0.2575
1230.0,0.2531
1231.0,0.2602
1232.0,0.2587
1233.0,0.2499
1234.0,0.26
1235.0,0.2583
1236.0,0.2602
1237.0,0.2566
1238.0,0.2593
1239.0,0.256
1240.0,0.257
1241.0,0.2558
1242.0,0.2552
1243.0,0.2531
1244.0,0.2549
1245.0,0.256
1246.0,0.2545
1247.0,0.2536
1248.0,0.2534
1249.0,0.2542
1250.0,0.2526
1251.0,0.2494
1252.0,0.2494
1253.0,0.2475
1254.0,0.245
1255.0,0.2492
1256.0,0.2423
1257.0,0.2409
1258.0,0.2454
1259.0,0.2366
1260.0,0.2378
1261.0,0.2246
1262.0,0.2179
1263.0,0.2183
1264.0,0.2016
1265.0,0.2169
1266.0,0.2088
1267.0,0.2124
1268.0,0.2015
1269.0,0.1255
1270.0,0.2117
1271.0,0.2238
1272.0,0.2245
1273.0,0.2222
1274.0,0.2229
1275.0,0.2261
1276.0,0.2282
1277.0,0.2297
1278.0,0.2341
1279.0,0.232
1280.0,0.2291
1281.0,0.2185
1282.0,0.2105
1283.0,0.2268
1284.0,0.2322
1285.0,0.2337
1286.0,0.2368
1287.0,0.2332
1288.0,0.2332
1289.0,0.2259
1290.0,0.2311
1291.0,0.2343
1292.0,0.2203
1293.0,0.2298
1294.0,0.2282
1295.0,0.2271
1296.0,0.2169
1297.0,0.2052
1298.0,0.2208
1299.0,0.2301
1300.0,0.1949
1301.0,0.2009
1302.0,0.2201
1303.0,0.1924
1304.0,0.1642
1305.0,0.2156
1306.0,0.2156
1307.0,0.1677
1308.0,0.1926
1309.0,0.2139
1310.0,0.1645
1311.0,0.1847
1312.0,0.1797
1313.0,0.1763
1314.0,0.1578
1315.0,0.1558
1316.0,0.1818
1317.0,0.1722
1318.0,0.1871
1319.0,0.1463
1320.0,0.1418
1321.0,0.1651
1322.0,0.1668
1323.0,0.1255
1324.0,0.1435
1325.0,0.1792
1326.0,0.1538
1327.0,0.1467
1328.0,0.1264
1329.0,0.09485
1330.0,0.1235
1331.0,0.07435
1332.0,0.07686
1333.0,0.107
1334.0,0.09077
1335.0,0.125
1336.0,0.09872
1337.0,0.08721
1338.0,0.09438
1339.0,0.094
1340.0,0.0915
1341.0,0.08918
1342.0,0.09369
1343.0,0.06304
1344.0,0.03778
1345.0,0.05451
1346.0,0.0268
1347.0,0.0272
1348.0,0.001732
1349.0,0.006259
1350.0,0.006527
1351.0,0.001561
1352.0,0.0004149
1353.0,2.084e-05
1354.0,7.261e-05
1355.0,5.673e-07
1356.0,1.017e-05
1357.0,1.551e-05
1358.0,6.728e-07
1359.0,8.291e-08
1360.0,3.054e-07
1361.0,3.25e-10
1362.0,8.718e-13
1363.0,4.111e-07
1364.0,1.7e-07
1365.0,2.983e-13
1366.0,1.809e-06
1367.0,7.44e-07
1368.0,2.195e-15
1369.0,6.348e-08
1370.0,3.103e-08
1371.0,1.741e-09
1372.0,4.095e-07
1373.0,8.416e-06
1374.0,3.96e-05
1375.0,7.198e-05
1376.0,6.539e-05
1377.0,2.988e-05
1378.0,0.0002944
1379.0,1.255e-05
1380.0,1.796e-05
1381.0,4.66e-07
1382.0,3.684e-07
1383.0,5.471e-09
1384.0,7.154e-08
1385.0,3.525e-07
1386.0,3.261e-07
1387.0,4.083e-05
1388.0,8.054e-07
1389.0,0.0001405
1390.0,0.0001209
1391.0,8.043e-05
1392.0,5.209e-06
1393.0,2.785e-05
1394.0,1.413e-05
1395.0,1.024e-07
1396.0,4.717e-10
1397.0,1.104e-05
1398.0,0.0003304
1399.0,0.0002097
1400.0,2.012e-10
1401.0,8.531e-10
1402.0,0.0005953
1403.0,0.0007455
1404.0,0.0002268
1405.0,4.946e-08
1406.0,0.0005866
1407.0,5.204e-05
1408.0,0.0004804
1409.0,0.0001591
1410.0,0.0001285
1411.0,0.0006561
1412.0,0.0008915
1413.0,0.009423
1414.0,0.0001016
1415.0,4.846e-05
1416.0,0.01583
1417.0,0.004649
1418.0,0.005272
1419.0,0.000812
1420.0,0.003221
1421.0,0.003485
1422.0,0.0207
1423.0,0.003972
1424.0,0.007486
1425.0,0.01095
1426.0,0.01261
1427.0,0.02361
1428.0,0.001624
1429.0,0.01744
1430.0,0.03029
1431.0,0.03342
1432.0,0.001275
1433.0,0.02105
1434.0,0.0106
1435.0,0.01023
1436.0,0.02031
1437.0,0.01558
1438.0,0.006418
1439.0,0.02788
1440.0,0.02087
1441.0,0.0156
1442.0,0.01733
