interpolation:linear
wavelength,value
280.0,2.763e-21
280.5,8.676000000000001e-20
281.0,4.58e-19
281.5,3.401e-19
282.0,1.016e-18
282.5,2.69e-18
283.0,8.739e-18
283.5,1.433e-17
284.0,2.345e-16
284.5,6.779e-16
285.0,1.535e-15
285.5,7.438e-15
286.0,2.973e-14
286.5,1.31e-13
287.0,3.706e-13
287.5,1.401e-12
288.0,3.747e-12
288.5,1.242e-11
289.0,3.522e-11
289.5,1.114e-10
290.0,3.179e-10
290.5,6.608e-10
291.0,1.444e-09
291.5,4.217e-09
292.0,9.068e-09
292.5,1.363e-08
293.0,3.186e-08
293.5,8.718e-08
294.0,1.482e-07
294.5,1.917e-07
295.0,3.524e-07
295.5,9.172e-07
296.0,1.838e-06
296.5,2.681e-06
297.0,3.769e-06
297.5,1.076e-05
298.0,1.799e-05
298.5,1.901e-05
299.0,4.409e-05
299.5,8.048e-05
300.0,9.384e-05
300.5,0.000145
301.0,0.0002947
301.5,0.0005335
302.0,0.0004934
302.5,0.0009754
303.0,0.001779
303.5,0.002262
304.0,0.002141
304.5,0.003249
305.0,0.005039
305.5,0.00585
306.0,0.005692
306.5,0.007147
307.0,0.01079
307.5,0.01457
308.0,0.01544
308.5,0.01837
309.0,0.01812
309.5,0.02091
310.0,0.02108
310.5,0.03422
311.0,0.04308
311.5,0.04165
312.0,0.04191
312.5,0.05121
313.0,0.05567
313.5,0.05397
314.0,0.0678
314.5,0.06048
315.0,0.07957
315.5,0.0664
316.0,0.05826
316.5,0.084
317.0,0.1043
317.5,0.1085
318.0,0.08483
318.5,0.1058
319.0,0.1259
319.5,0.1023
320.0,0.1235
320.5,0.1553
321.0,0.1388
321.5,0.1332
322.0,0.1414
322.5,0.1231
323.0,0.1229
323.5,0.1514
324.0,0.1768
324.5,0.1794
325.0,0.1548
325.5,0.1996
326.0,0.2442
326.5,0.2448
327.0,0.2439
327.5,0.2356
328.0,0.2095
328.5,0.2206
329.0,0.2644
329.5,0.3003
330.0,0.303
330.5,0.2423
331.0,0.2469
331.5,0.2511
332.0,0.2716
332.5,0.2688
333.0,0.268
333.5,0.2425
334.0,0.2485
334.5,0.2869
335.0,0.2698
335.5,0.3152
336.0,0.2181
336.5,0.2555
337.0,0.2096
337.5,0.2607
338.0,0.2547
338.5,0.2941
339.0,0.2912
339.5,0.2802
340.0,0.3293
340.5,0.297
341.0,0.2897
341.5,0.2661
342.0,0.3181
342.5,0.2977
343.0,0.3274
343.5,0.3084
344.0,0.228
344.5,0.2303
345.0,0.3049
345.5,0.3114
346.0,0.2647
346.5,0.2999
347.0,0.322
347.5,0.2604
348.0,0.297
348.5,0.2969
349.0,0.2756
349.5,0.2729
350.0,0.3377
350.5,0.3563
351.0,0.3183
351.5,0.3094
352.0,0.3325
352.5,0.2595
353.0,0.327
353.5,0.3498
354.0,0.3632
354.5,0.3684
355.0,0.3673
355.5,0.3319
356.0,0.3474
356.5,0.2967
357.0,0.2452
357.5,0.3002
358.0,0.238
358.5,0.2034
359.0,0.2846
359.5,0.3627
360.0,0.3846
360.5,0.3075
361.0,0.2804
361.5,0.3231
362.0,0.2795
362.5,0.387
363.0,0.3477
363.5,0.3204
364.0,0.392
364.5,0.3352
365.0,0.3415
365.5,0.4287
366.0,0.4544
366.5,0.4271
367.0,0.416
367.5,0.4319
368.0,0.3781
368.5,0.3816
369.0,0.4122
369.5,0.4395
370.0,0.4687
370.5,0.3639
371.0,0.389
371.5,0.4867
372.0,0.3231
372.5,0.3876
373.0,0.3944
373.5,0.2567
374.0,0.3731
374.5,0.3091
375.0,0.3005
375.5,0.4488
376.0,0.3721
376.5,0.3857
377.0,0.4085
377.5,0.4781
378.0,0.5184
378.5,0.4901
379.0,0.4045
379.5,0.3696
380.0,0.3843
380.5,0.4657
381.0,0.4668
381.5,0.3702
382.0,0.3289
382.5,0.2805
383.0,0.2598
383.5,0.2503
384.0,0.2762
384.5,0.4064
385.0,0.4031
385.5,0.3755
386.0,0.3217
386.5,0.4228
387.0,0.3514
387.5,0.3948
388.0,0.3646
388.5,0.3605
389.0,0.3893
389.5,0.4716
390.0,0.4735
390.5,0.4358
391.0,0.5132
391.5,0.5236
392.0,0.4411
392.5,0.395
393.0,0.2199
393.5,0.1599
394.0,0.3254
394.5,0.4139
395.0,0.5052
395.5,0.5133
396.0,0.4451
396.5,0.2603
397.0,0.1954
397.5,0.3975
398.0,0.5567
398.5,0.5756
399.0,0.6236
399.5,0.6217
400.0,0.6456
401.0,0.6544
402.0,0.6908
403.0,0.6566
404.0,0.6467
405.0,0.6469
406.0,0.6368
407.0,0.6268
408.0,0.6515
409.0,0.6976
410.0,0.6098
411.0,0.6609
412.0,0.7102
413.0,0.6928
414.0,0.7016
415.0,0.7038
416.0,0.7165
417.0,0.6991
418.0,0.6864
419.0,0.6957
420.0,0.6929
421.0,0.7251
422.0,0.6894
423.0,0.6737
424.0,0.7127
425.0,0.7117
426.0,0.6936
427.0,0.6809
428.0,0.6634
429.0,0.6287
430.0,0.5504
431.0,0.5456
432.0,0.7048
433.0,0.7089
434.0,0.6584
435.0,0.6877
436.0,0.7752
437.0,0.7651
438.0,0.6969
439.0,0.7207
440.0,0.7439
441.0,0.7711
442.0,0.8272
443.0,0.8057
444.0,0.8235
445.0,0.8057
446.0,0.7693
447.0,0.832
448.0,0.8449
449.0,0.8487
450.0,0.8726
451.0,0.9052
452.0,0.8723
453.0,0.8206
454.0,0.8569
455.0,0.8623
456.0,0.883
457.0,0.8977
458.0,0.8671
459.0,0.8627
460.0,0.8651
461.0,0.8851
462.0,0.8921
463.0,0.886
464.0,0.8717
465.0,0.861
466.0,0.8696
467.0,0.8537
468.0,0.8637
469.0,0.8683
470.0,0.8407
471.0,0.8397
472.0,0.8848
473.0,0.8733
474.0,0.8745
475.0,0.8818
476.0,0.8552
477.0,0.8575
478.0,0.8814
479.0,0.8762
480.0,0.878
481.0,0.8946
482.0,0.8996
483.0,0.889
484.0,0.8709
485.0,0.8299
486.0,0.7257
487.0,0.7607
488.0,0.8346
489.0,0.8371
490.0,0.8808
491.0,0.8658
492.0,0.8176
493.0,0.8444
494.0,0.853
495.0,0.8603
496.0,0.8656
497.0,0.879
498.0,0.8379
499.0,0.8486
500.0,0.8237
501.0,0.8085
502.0,0.7969
503.0,0.829
504.0,0.8071
505.0,0.8367
506.0,0.8637
507.0,0.8219
508.0,0.7966
509.0,0.8192
510.0,0.815
511.0,0.8371
512.0,0.8463
513.0,0.801
514.0,0.7956
515.0,0.7877
516.0,0.7858
517.0,0.6983
518.0,0.7341
519.0,0.7699
520.0,0.7979
521.0,0.8055
522.0,0.8061
523.0,0.7916
524.0,0.8197
525.0,0.8292
526.0,0.792
527.0,0.7462
528.0,0.789
529.0,0.8316
530.0,0.8195
531.0,0.8316
532.0,0.803
533.0,0.7795
534.0,0.8026
535.0,0.8202
536.0,0.8279
537.0,0.7953
538.0,0.8094
539.0,0.8026
540.0,0.7695
541.0,0.7743
542.0,0.7984
543.0,0.7902
544.0,0.8037
545.0,0.8013
546.0,0.8046
547.0,0.8044
548.0,0.7949
549.0,0.7974
550.0,0.8069
551.0,0.7971
552.0,0.8027
553.0,0.7883
554.0,0.8071
555.0,0.8087
556.0,0.7981
557.0,0.7732
558.0,0.7673
559.0,0.7528
560.0,0.7621
561.0,0.7718
562.0,0.7661
563.0,0.7868
564.0,0.7652
565.0,0.7585
566.0,0.7472
567.0,0.7612
568.0,0.7539
569.0,0.735
570.0,0.735
571.0,0.7308
572.0,0.7477
573.0,0.7556
574.0,0.7531
575.0,0.7388
576.0,0.732
577.0,0.7401
578.0,0.7293
579.0,0.7326
580.0,0.7472
581.0,0.7516
582.0,0.7663
583.0,0.7685
584.0,0.7755
585.0,0.7567
586.0,0.7411
587.0,0.7571
588.0,0.7375
589.0,0.651
590.0,0.681
591.0,0.722
592.0,0.7121
593.0,0.7237
594.0,0.7182
595.0,0.6997
596.0,0.7292
597.0,0.7208
598.0,0.7195
599.0,0.7204
600.0,0.722
601.0,0.7164
602.0,0.7116
603.0,0.7236
604.0,0.7357
605.0,0.732
606.0,0.7292
607.0,0.7366
608.0,0.7287
609.0,0.7301
610.0,0.7251
611.0,0.729
612.0,0.727
613.0,0.7179
614.0,0.7083
615.0,0.7239
616.0,0.7002
617.0,0.6989
618.0,0.7259
619.0,0.7186
620.0,0.7231
621.0,0.7237
622.0,0.715
623.0,0.704
624.0,0.6921
625.0,0.6905
626.0,0.7007
627.0,0.7081
628.0,0.656
629.0,0.6895
630.0,0.6735
631.0,0.6905
632.0,0.6825
633.0,0.704
634.0,0.6978
635.0,0.7089
636.0,0.6999
637.0,0.7116
638.0,0.7189
639.0,0.711
640.0,0.7044
641.0,0.7041
642.0,0.7011
643.0,0.7106
644.0,0.7085
645.0,0.7095
646.0,0.6923
647.0,0.6827
648.0,0.6832
649.0,0.6699
650.0,0.675
651.0,0.7046
652.0,0.6733
653.0,0.6953
654.0,0.6878
655.0,0.6612
656.0,0.5867
657.0,0.6026
658.0,0.6759
659.0,0.681
660.0,0.6839
661.0,0.6888
662.0,0.6898
663.0,0.6763
664.0,0.6849
665.0,0.6858
666.0,0.6865
667.0,0.6861
668.0,0.6866
669.0,0.6974
670.0,0.6944
671.0,0.6944
672.0,0.6885
673.0,0.699
674.0,0.6964
675.0,0.6902
676.0,0.695
677.0,0.6882
678.0,0.6902
679.0,0.6791
680.0,0.6846
681.0,0.6801
682.0,0.6793
683.0,0.678
684.0,0.6746
685.0,0.6804
686.0,0.6763
687.0,0.4261
688.0,0.51
689.0,0.5122
690.0,0.5409
691.0,0.5735
692.0,0.5978
693.0,0.5926
694.0,0.5878
695.0,0.615
696.0,0.6159
697.0,0.6571
698.0,0.6468
699.0,0.629
700.0,0.6213
701.0,0.6142
702.0,0.6194
703.0,0.6206
704.0,0.6418
705.0,0.6428
706.0,0.6428
707.0,0.6435
708.0,0.6448
709.0,0.6466
710.0,0.6461
711.0,0.6456
712.0,0.644
713.0,0.6372
714.0,0.6397
715.0,0.6186
716.0,0.6187
717.0,0.5282
718.0,0.484
719.0,0.4426
720.0,0.4629
721.0,0.5161
722.0,0.5958
723.0,0.5519
724.0,0.494
725.0,0.4849
726.0,0.5081
727.0,0.5174
728.0,0.4833
729.0,0.5044
730.0,0.5335
731.0,0.5096
732.0,0.5483
733.0,0.5834
734.0,0.5981
735.0,0.5852
736.0,0.5845
737.0,0.5867
738.0,0.5979
739.0,0.5861
740.0,0.602
741.0,0.5964
742.0,0.5974
743.0,0.6127
744.0,0.6112
745.0,0.6115
746.0,0.6143
747.0,0.6157
748.0,0.6144
749.0,0.6074
750.0,0.6071
751.0,0.601
752.0,0.6036
753.0,0.6066
754.0,0.608
755.0,0.6046
756.0,0.6043
757.0,0.6052
758.0,0.5976
759.0,0.5842
760.0,0.07673
761.0,0.03693
762.0,0.274
763.0,0.1242
764.0,0.1976
765.0,0.274
766.0,0.3478
767.0,0.4509
768.0,0.5304
769.0,0.5438
770.0,0.5649
771.0,0.5706
772.0,0.5722
773.0,0.5763
774.0,0.5735
775.0,0.5692
776.0,0.5762
777.0,0.5686
778.0,0.5652
779.0,0.5656
780.0,0.5625
781.0,0.5631
782.0,0.5666
783.0,0.5568
784.0,0.5595
785.0,0.5553
786.0,0.5613
787.0,0.5505
788.0,0.5431
789.0,0.5428
790.0,0.5269
791.0,0.5329
792.0,0.5292
793.0,0.5205
794.0,0.5309
795.0,0.5395
796.0,0.5209
797.0,0.5214
798.0,0.5386
799.0,0.5348
800.0,0.525
801.0,0.5229
802.0,0.5214
803.0,0.5172
804.0,0.5181
805.0,0.5171
806.0,0.5326
807.0,0.5259
808.0,0.5265
809.0,0.5159
810.0,0.5111
811.0,0.5107
812.0,0.4948
813.0,0.4837
814.0,0.4212
815.0,0.4188
816.0,0.3893
817.0,0.3968
818.0,0.381
819.0,0.4297
820.0,0.4033
821.0,0.4767
822.0,0.4622
823.0,0.306
824.0,0.4468
825.0,0.4683
826.0,0.4489
827.0,0.4754
828.0,0.3981
829.0,0.4465
830.0,0.4401
831.0,0.4418
832.0,0.4273
833.0,0.4571
834.0,0.4393
835.0,0.4863
836.0,0.4631
837.0,0.4878
838.0,0.4714
839.0,0.4807
840.0,0.4915
841.0,0.484
842.0,0.4858
843.0,0.4864
844.0,0.4792
845.0,0.496
846.0,0.4939
847.0,0.485
848.0,0.4816
849.0,0.4679
850.0,0.4483
851.0,0.4743
852.0,0.4711
853.0,0.4538
854.0,0.3916
855.0,0.4306
856.0,0.4704
857.0,0.4811
858.0,0.4775
859.0,0.4781
860.0,0.479
861.0,0.4764
862.0,0.4839
863.0,0.4953
864.0,0.4706
865.0,0.4665
866.0,0.4195
867.0,0.4378
868.0,0.4764
869.0,0.4665
870.0,0.4798
871.0,0.4733
872.0,0.4716
873.0,0.4707
874.0,0.4651
875.0,0.4557
876.0,0.4604
877.0,0.4651
878.0,0.47
879.0,0.4628
880.0,0.4529
881.0,0.4459
882.0,0.4555
883.0,0.4571
884.0,0.455
885.0,0.4584
886.0,0.4362
887.0,0.4413
888.0,0.4475
889.0,0.4532
890.0,0.4487
891.0,0.4483
892.0,0.4343
893.0,0.4196
894.0,0.4027
895.0,0.3777
896.0,0.3548
897.0,0.3012
898.0,0.3306
899.0,0.2473
900.0,0.3408
901.0,0.2593
902.0,0.3099
903.0,0.3111
904.0,0.3996
905.0,0.3847
906.0,0.3591
907.0,0.2863
908.0,0.2928
909.0,0.3197
910.0,0.2781
911.0,0.2995
912.0,0.3138
913.0,0.282
914.0,0.2805
915.0,0.3041
916.0,0.2564
917.0,0.3302
918.0,0.2627
919.0,0.3376
920.0,0.3438
921.0,0.3578
922.0,0.3165
923.0,0.3459
924.0,0.3239
925.0,0.3169
926.0,0.3201
927.0,0.3617
928.0,0.2557
929.0,0.2308
930.0,0.1772
931.0,0.1684
932.0,0.117
933.0,0.09292
934.0,0.0465
935.0,0.09684
936.0,0.0576
937.0,0.05811
938.0,0.07256
939.0,0.1631
940.0,0.1993
941.0,0.1463
942.0,0.1719
943.0,0.1098
944.0,0.1187
945.0,0.1517
946.0,0.07285
947.0,0.1512
948.0,0.1105
949.0,0.2067
950.0,0.05104
951.0,0.2043
952.0,0.1041
953.0,0.1382
954.0,0.1737
955.0,0.1402
956.0,0.1391
957.0,0.1038
958.0,0.2026
959.0,0.1561
960.0,0.1749
961.0,0.2002
962.0,0.189
963.0,0.2212
964.0,0.2016
965.0,0.2206
966.0,0.2199
967.0,0.2186
968.0,0.3053
969.0,0.3176
970.0,0.2902
971.0,0.3375
972.0,0.3218
973.0,0.2748
974.0,0.2601
975.0,0.2721
976.0,0.2554
977.0,0.2965
978.0,0.2792
979.0,0.2941
980.0,0.2755
981.0,0.3357
982.0,0.319
983.0,0.3052
984.0,0.3483
985.0,0.3178
986.0,0.3558
987.0,0.3472
988.0,0.3466
989.0,0.3556
990.0,0.3445
991.0,0.3565
992.0,0.3587
993.0,0.3491
994.0,0.3588
995.0,0.3586
996.0,0.3567
997.0,0.3574
998.0,0.3556
999.0,0.3544
1000.0,0.3515
1001.0,0.3563
1002.0,0.3449
1003.0,0.3499
1004.0,0.3409
1005.0,0.329
1006.0,0.3416
1007.0,0.349
1008.0,0.3468
1009.0,0.3446
1010.0,0.343
1011.0,0.3472
1012.0,0.3439
1013.0,0.3465
1014.0,0.344
1015.0,0.3417
1016.0,0.3402
1017.0,0.341
1018.0,0.3399
1019.0,0.332
1020.0,0.338
1021.0,0.3376
1022.0,0.3348
1023.0,0.3383
1024.0,0.3333
1025.0,0.3383
1026.0,0.3367
1027.0,0.3359
1028.0,0.3352
1029.0,0.3311
1030.0,0.3336
1031.0,0.3322
1032.0,0.3313
1033.0,0.3263
1034.0,0.3264
1035.0,0.3274
1036.0,0.329
1037.0,0.3237
1038.0,0.3251
1039.0,0.3249
1040.0,0.3235
1041.0,0.3248
1042.0,0.3225
1043.0,0.3214
1044.0,0.3225
1045.0,0.3181
1046.0,0.3146
1047.0,0.3174
1048.0,0.319
1049.0,0.3179
1050.0,0.3163
1051.0,0.3158
1052.0,0.3145
1053.0,0.3119
1054.0,0.3125
1055.0,0.3126
1056.0,0.3114
1057.0,0.3103
1058.0,0.3026
1059.0,0.3029
1060.0,0.3024
1061.0,0.3019
1062.0,0.3034
1063.0,0.3004
1064.0,0.3039
1065.0,0.3015
1066.0,0.2957
1067.0,0.2995
1068.0,0.2928
1069.0,0.2839
1070.0,0.2934
1071.0,0.2985
1072.0,0.2946
1073.0,0.2904
1074.0,0.2986
1075.0,0.282
1076.0,0.2982
1077.0,0.292
1078.0,0.286
1079.0,0.2937
1080.0,0.2875
1081.0,0.2775
1082.0,0.2833
1083.0,0.2845
1084.0,0.2764
1085.0,0.2883
1086.0,0.2607
1087.0,0.2708
1088.0,0.284
1089.0,0.2737
1090.0,0.2667
1091.0,0.2826
1092.0,0.2822
1093.0,0.2349
1094.0,0.2577
1095.0,0.2452
1096.0,0.2335
1097.0,0.2757
1098.0,0.2293
1099.0,0.2399
1100.0,0.2211
1101.0,0.2245
1102.0,0.2132
1103.0,0.2103
1104.0,0.2107
1105.0,0.234
1106.0,0.1717
1107.0,0.2208
1108.0,0.1828
1109.0,0.184
1110.0,0.2182
1111.0,0.1423
1112.0,0.183
1113.0,0.1106
1114.0,0.1241
1115.0,0.1026
1116.0,0.07854
1117.0,0.02541
1118.0,0.08653
1119.0,0.04003
1120.0,0.05011
1121.0,0.06821
1122.0,0.02626
1123.0,0.04541
1124.0,0.03829
1125.0,0.05067
1126.0,0.01526
1127.0,0.05738
1128.0,0.03168
1129.0,0.03395
1130.0,0.02149
1131.0,0.1155
1132.0,0.08931
1133.0,0.053
1134.0,0.0117
1135.0,0.0045
1136.0,0.04296
1137.0,0.1121
1138.0,0.07834
1139.0,0.1241
1140.0,0.1009
1141.0,0.07451
1142.0,0.08713
1143.0,0.1268
1144.0,0.04089
1145.0,0.05118
1146.0,0.05515
1147.0,0.01698
1148.0,0.1095
1149.0,0.08531
1150.0,0.04444
1151.0,0.0777
1152.0,0.09817
1153.0,0.09762
1154.0,0.04939
1155.0,0.1293
1156.0,0.115
1157.0,0.1315
1158.0,0.13
1159.0,0.142
1160.0,0.1196
1161.0,0.1512
1162.0,0.1517
1163.0,0.2114
1164.0,0.179
1165.0,0.1665
1166.0,0.1671
1167.0,0.1832
1168.0,0.1847
1169.0,0.1898
1170.0,0.2082
1171.0,0.2028
1172.0,0.2077
1173.0,0.2078
1174.0,0.1438
1175.0,0.2039
1176.0,0.2266
1177.0,0.2159
1178.0,0.1587
1179.0,0.2285
1180.0,0.2013
1181.0,0.2079
1182.0,0.1398
1183.0,0.2053
1184.0,0.1912
1185.0,0.1834
1186.0,0.221
1187.0,0.2094
1188.0,0.1416
1189.0,0.1949
1190.0,0.2162
1191.0,0.2031
1192.0,0.2194
1193.0,0.2095
1194.0,0.2164
1195.0,0.2033
1196.0,0.1949
1197.0,0.2172
1198.0,0.1979
1199.0,0.1653
1200.0,0.2068
1201.0,0.1984
1202.0,0.198
1203.0,0.196
1204.0,0.17
1205.0,0.2035
1206.0,0.2263
1207.0,0.1971
1208.0,0.1949
1209.0,0.1992
1210.0,0.2081
1211.0,0.1971
1212.0,0.1933
1213.0,0.2182
1214.0,0.1985
1215.0,0.1945
1216.0,0.2176
1217.0,0.2113
1218.0,0.2158
1219.0,0.2128
1220.0,0.2161
1221.0,0.2185
1222.0,0.2126
1223.0,0.2104
1224.0,0.2086
1225.0,0.2171
1226.0,0.2189
1227.0,0.2005
1228.0,0.2203
1229.0,0.219
1230.0,0.215
1231.0,0.222
1232.0,0.2207
1233.0,0.2118
1234.0,0.2221
1235.0,0.2205
1236.0,0.2222
1237.0,0.2186
1238.0,0.2215
1239.0,0.2186
1240.0,0.2195
1241.0,0.2182
1242.0,0.218
1243.0,0.2162
1244.0,0.2177
1245.0,0.2187
1246.0,0.2174
1247.0,0.2165
1248.0,0.2162
1249.0,0.217
1250.0,0.2156
1251.0,0.2126
1252.0,0.2129
1253.0,0.2108
1254.0,0.2083
1255.0,0.2126
1256.0,0.2058
1257.0,0.2045
1258.0,0.209
1259.0,0.2002
1260.0,0.2014
1261.0,0.1885
1262.0,0.1821
1263.0,0.1824
1264.0,0.1665
1265.0,0.1812
1266.0,0.1733
1267.0,0.1771
1268.0,0.1667
1269.0,0.09573
1270.0,0.1762
1271.0,0.1881
1272.0,0.1889
1273.0,0.1867
1274.0,0.1875
1275.0,0.1905
1276.0,0.1927
1277.0,0.1943
1278.0,0.1987
1279.0,0.1968
1280.0,0.1944
1281.0,0.1858
1282.0,0.1795
1283.0,0.1932
1284.0,0.1977
1285.0,0.1991
1286.0,0.2021
1287.0,0.1985
1288.0,0.1986
1289.0,0.1913
1290.0,0.1969
1291.0,0.1998
1292.0,0.1859
1293.0,0.1955
1294.0,0.194
1295.0,0.1926
1296.0,0.1827
1297.0,0.172
1298.0,0.1869
1299.0,0.1959
1300.0,0.1628
1301.0,0.1684
1302.0,0.1863
1303.0,0.161
1304.0,0.1345
1305.0,0.1823
1306.0,0.1821
1307.0,0.1385
1308.0,0.1618
1309.0,0.1804
1310.0,0.1356
1311.0,0.1544
1312.0,0.1498
1313.0,0.1463
1314.0,0.13
1315.0,0.1276
1316.0,0.1515
1317.0,0.1431
1318.0,0.1567
1319.0,0.1191
1320.0,0.1161
1321.0,0.1364
1322.0,0.1372
1323.0,0.1004
1324.0,0.1169
1325.0,0.149
1326.0,0.1261
1327.0,0.1198
1328.0,0.1023
1329.0,0.07433
1330.0,0.09804
1331.0,0.05622
1332.0,0.05903
1333.0,0.0828
1334.0,0.07175
1335.0,0.0999
1336.0,0.0774
1337.0,0.06772
1338.0,0.07323
1339.0,0.07334
1340.0,0.07218
1341.0,0.06852
1342.0,0.07216
1343.0,0.04519
1344.0,0.02735
1345.0,0.03949
1346.0,0.01745
1347.0,0.01736
1348.0,0.000866
1349.0,0.003343
1350.0,0.003655
1351.0,0.000699
1352.0,0.0001431
1353.0,5.6e-06
1354.0,2.323e-05
1355.0,1.054e-07
1356.0,2.695e-06
1357.0,4.123e-06
1358.0,1.278e-07
1359.0,1.033e-08
1360.0,4.994e-08
1361.0,2.242e-11
1362.0,4.295e-14
1363.0,5.758e-08
1364.0,2.389e-08
1365.0,9.192e-15
1366.0,2.828e-07
1367.0,1.284e-07
1368.0,2.94e-17
1369.0,8.784e-09
1370.0,3.593e-09
1371.0,1.65e-10
1372.0,7.116e-08
1373.0,1.921e-06
1374.0,1.094e-05
1375.0,1.94e-05
1376.0,2.116e-05
1377.0,9.298e-06
1378.0,9.795e-05
1379.0,3.903e-06
1380.0,4.917e-06
1381.0,1.157e-07
1382.0,6.075e-08
1383.0,7.882e-10
1384.0,9.174e-09
1385.0,7.161e-08
1386.0,4.727e-08
1387.0,9.86e-06
1388.0,2.014e-07
1389.0,4.25e-05
1390.0,3.618e-05
1391.0,2.333e-05
1392.0,1.444e-06
1393.0,8.517e-06
1394.0,3.115e-06
1395.0,1.86e-08
1396.0,3.66e-11
1397.0,3.133e-06
1398.0,0.0001071
1399.0,6.864e-05
1400.0,1.235e-11
1401.0,7.19e-11
1402.0,0.0002581
1403.0,0.0003058
1404.0,9.073e-05
1405.0,7.711e-09
1406.0,0.0002134
1407.0,2.072e-05
1408.0,0.000178
1409.0,5.052e-05
1410.0,4.591e-05
1411.0,0.0002722
1412.0,0.0003982
1413.0,0.005149
1414.0,3.708e-05
1415.0,1.65e-05
1416.0,0.009899
1417.0,0.00256
1418.0,0.002802
1419.0,0.0004187
1420.0,0.001702
1421.0,0.001874
1422.0,0.013
1423.0,0.002415
1424.0,0.004659
1425.0,0.006609
1426.0,0.008068
1427.0,0.01609
1428.0,0.0007931
1429.0,0.01137
1430.0,0.02111
1431.0,0.02363
1432.0,0.000617
1433.0,0.01444
1434.0,0.007059
1435.0,0.0061
1436.0,0.01322
1437.0,0.01018
