interpolation:linear
wavelength,value
280.0,1.0109999999999999e-22
280.5,3.369e-21
281.0,1.8170000000000002e-20
281.5,4.768e-19
282.0,5.339e-19
282.5,1.295e-18
283.0,4.065e-18
283.5,6.617e-18
284.0,1.092e-16
284.5,3.198e-16
285.0,5.767e-16
285.5,2.776e-15
286.0,1.114e-14
286.5,4.983e-14
287.0,1.429e-13
287.5,5.512e-13
288.0,1.944e-12
288.5,5.664e-12
289.0,1.477e-11
289.5,4.401e-11
290.0,1.215e-10
290.5,2.473e-10
291.0,5.305e-10
291.5,1.524e-09
292.0,3.083e-09
292.5,4.305e-09
293.0,9.183e-09
293.5,2.22e-08
294.0,3.464e-08
294.5,4.565e-08
295.0,7.706e-08
295.5,1.3e-07
296.0,2.477e-07
296.5,3.417e-07
297.0,4.567e-07
297.5,1.201e-06
298.0,1.857e-06
298.5,1.837e-06
299.0,3.981e-06
299.5,6.391e-06
300.0,6.88e-06
300.5,9.733e-06
301.0,1.69e-05
301.5,2.582e-05
302.0,2.157e-05
302.5,4.201e-05
303.0,7.563e-05
303.5,9.623e-05
304.0,9.287e-05
304.5,0.0001492
305.0,0.0002522
305.5,0.0003101
306.0,0.0003085
306.5,0.0004027
307.0,0.0006646
307.5,0.0009814
308.0,0.001054
308.5,0.001312
309.0,0.001548
309.5,0.002083
310.0,0.002255
310.5,0.003788
311.0,0.005051
311.5,0.005004
312.0,0.005702
312.5,0.007563
313.0,0.00858
313.5,0.007988
314.0,0.01107
314.5,0.01125
315.0,0.01515
315.5,0.01186
316.0,0.01157
316.5,0.01827
317.0,0.02263
317.5,0.02292
318.0,0.01908
318.5,0.02682
319.0,0.03387
319.5,0.02496
320.0,0.0297
320.5,0.04219
321.0,0.0421
321.5,0.04082
322.0,0.03849
322.5,0.03369
323.0,0.03634
323.5,0.04893
324.0,0.05789
324.5,0.05677
325.0,0.04635
325.5,0.06358
326.0,0.08063
326.5,0.08438
327.0,0.08274
327.5,0.07828
328.0,0.06572
328.5,0.07417
329.0,0.09393
329.5,0.1085
330.0,0.1079
330.5,0.08273
331.0,0.08306
331.5,0.0872
332.0,0.0987
332.5,0.09973
333.0,0.09824
333.5,0.08592
334.0,0.08755
334.5,0.1051
335.0,0.101
335.5,0.119
336.0,0.08234
336.5,0.09459
337.0,0.07636
337.5,0.09444
338.0,0.09524
338.5,0.1113
339.0,0.1104
339.5,0.1061
340.0,0.1233
340.5,0.1116
341.0,0.1099
341.5,0.1013
342.0,0.1212
342.5,0.1136
343.0,0.1247
343.5,0.1172
344.0,0.08586
344.5,0.08734
345.0,0.1162
345.5,0.1189
346.0,0.1012
346.5,0.1148
347.0,0.123
347.5,0.09947
348.0,0.1137
348.5,0.1139
349.0,0.1058
349.5,0.1048
350.0,0.1298
350.5,0.1369
351.0,0.1222
351.5,0.1185
352.0,0.1276
352.5,0.09978
353.0,0.1259
353.5,0.1348
354.0,0.1401
354.5,0.1421
355.0,0.1416
355.5,0.1281
356.0,0.1342
356.5,0.1146
357.0,0.09473
357.5,0.116
358.0,0.09203
358.5,0.07869
359.0,0.1101
359.5,0.1402
360.0,0.1488
360.5,0.119
361.0,0.1086
361.5,0.1253
362.0,0.1085
362.5,0.1503
363.0,0.1352
363.5,0.1246
364.0,0.1526
364.5,0.1305
365.0,0.133
365.5,0.167
366.0,0.1772
366.5,0.1667
367.0,0.1624
367.5,0.1687
368.0,0.1477
368.5,0.1492
369.0,0.1612
369.5,0.172
370.0,0.1835
370.5,0.1426
371.0,0.1525
371.5,0.1909
372.0,0.1268
372.5,0.1521
373.0,0.1549
373.5,0.1009
374.0,0.1467
374.5,0.1216
375.0,0.1183
375.5,0.1767
376.0,0.1466
376.5,0.152
377.0,0.1611
377.5,0.1886
378.0,0.2046
378.5,0.1935
379.0,0.1597
379.5,0.146
380.0,0.1519
380.5,0.1841
381.0,0.1847
381.5,0.1466
382.0,0.1304
382.5,0.1113
383.0,0.1031
383.5,0.09944
384.0,0.1098
384.5,0.1616
385.0,0.1604
385.5,0.1496
386.0,0.1282
386.5,0.1686
387.0,0.1402
387.5,0.1576
388.0,0.1456
388.5,0.1441
389.0,0.1557
389.5,0.1887
390.0,0.1896
390.5,0.1746
391.0,0.2058
391.5,0.21
392.0,0.177
392.5,0.1587
393.0,0.08838
393.5,0.06431
394.0,0.131
394.5,0.1667
395.0,0.2035
395.5,0.2069
396.0,0.1795
396.5,0.1051
397.0,0.07894
397.5,0.1607
398.0,0.2251
398.5,0.2328
399.0,0.2525
399.5,0.2519
400.0,0.2616
401.0,0.2629
402.0,0.278
403.0,0.2646
404.0,0.2609
405.0,0.2613
406.0,0.2576
407.0,0.254
408.0,0.2641
409.0,0.2831
410.0,0.2478
411.0,0.2689
412.0,0.2895
413.0,0.2826
414.0,0.2866
415.0,0.2879
416.0,0.2935
417.0,0.2867
418.0,0.2818
419.0,0.286
420.0,0.2851
421.0,0.2987
422.0,0.2843
423.0,0.2781
424.0,0.2944
425.0,0.2943
426.0,0.2874
427.0,0.2824
428.0,0.2754
429.0,0.2615
430.0,0.2293
431.0,0.2273
432.0,0.2941
433.0,0.2961
434.0,0.2752
435.0,0.2876
436.0,0.3248
437.0,0.3211
438.0,0.2929
439.0,0.3025
440.0,0.3126
441.0,0.3245
442.0,0.3484
443.0,0.3392
444.0,0.3472
445.0,0.3398
446.0,0.3253
447.0,0.3525
448.0,0.3577
449.0,0.3601
450.0,0.3707
451.0,0.3849
452.0,0.3713
453.0,0.3497
454.0,0.3658
455.0,0.3681
456.0,0.3772
457.0,0.3837
458.0,0.3702
459.0,0.3686
460.0,0.3694
461.0,0.3781
462.0,0.3817
463.0,0.3792
464.0,0.374
465.0,0.3703
466.0,0.3746
467.0,0.3676
468.0,0.372
469.0,0.374
470.0,0.362
471.0,0.3619
472.0,0.3813
473.0,0.3765
474.0,0.3765
475.0,0.3791
476.0,0.3668
477.0,0.3672
478.0,0.3777
479.0,0.3759
480.0,0.3771
481.0,0.3849
482.0,0.3878
483.0,0.3841
484.0,0.3769
485.0,0.3598
486.0,0.3152
487.0,0.331
488.0,0.3632
489.0,0.3641
490.0,0.3835
491.0,0.3774
492.0,0.3566
493.0,0.3684
494.0,0.3723
495.0,0.3757
496.0,0.3781
497.0,0.3839
498.0,0.3659
499.0,0.3702
500.0,0.3588
501.0,0.3516
502.0,0.3454
503.0,0.3583
504.0,0.3458
505.0,0.3609
506.0,0.3725
507.0,0.3546
508.0,0.3447
509.0,0.3552
510.0,0.3541
511.0,0.3643
512.0,0.3687
513.0,0.349
514.0,0.3469
515.0,0.3435
516.0,0.3425
517.0,0.3045
518.0,0.3201
519.0,0.3357
520.0,0.3477
521.0,0.3509
522.0,0.3509
523.0,0.3443
524.0,0.356
525.0,0.3592
526.0,0.3428
527.0,0.3223
528.0,0.3403
529.0,0.3581
530.0,0.3526
531.0,0.3575
532.0,0.3451
533.0,0.335
534.0,0.3452
535.0,0.3532
536.0,0.3568
537.0,0.3431
538.0,0.3494
539.0,0.3464
540.0,0.3319
541.0,0.333
542.0,0.3429
543.0,0.3401
544.0,0.3451
545.0,0.3442
546.0,0.3449
547.0,0.3455
548.0,0.3418
549.0,0.3431
550.0,0.3472
551.0,0.3431
552.0,0.3455
553.0,0.3392
554.0,0.3472
555.0,0.3476
556.0,0.3429
557.0,0.3319
558.0,0.3289
559.0,0.3221
560.0,0.3258
561.0,0.3294
562.0,0.3264
563.0,0.3345
564.0,0.3247
565.0,0.3214
566.0,0.3161
567.0,0.3214
568.0,0.3167
569.0,0.3057
570.0,0.3061
571.0,0.305
572.0,0.31
573.0,0.3129
574.0,0.3114
575.0,0.3047
576.0,0.302
577.0,0.3056
578.0,0.3021
579.0,0.3049
580.0,0.3133
581.0,0.3169
582.0,0.3247
583.0,0.3269
584.0,0.3307
585.0,0.3232
586.0,0.3167
587.0,0.3225
588.0,0.3104
589.0,0.2667
590.0,0.2795
591.0,0.3008
592.0,0.2941
593.0,0.3023
594.0,0.2986
595.0,0.2879
596.0,0.3063
597.0,0.3011
598.0,0.3024
599.0,0.3036
600.0,0.3058
601.0,0.3046
602.0,0.3028
603.0,0.3085
604.0,0.314
605.0,0.3128
606.0,0.3123
607.0,0.3162
608.0,0.3135
609.0,0.3147
610.0,0.3132
611.0,0.3154
612.0,0.315
613.0,0.3114
614.0,0.3079
615.0,0.3153
616.0,0.3054
617.0,0.3052
618.0,0.3174
619.0,0.3144
620.0,0.3164
621.0,0.3162
622.0,0.312
623.0,0.3069
624.0,0.3021
625.0,0.3013
626.0,0.3056
627.0,0.3073
628.0,0.2671
629.0,0.293
630.0,0.2855
631.0,0.2988
632.0,0.2965
633.0,0.3084
634.0,0.3077
635.0,0.3137
636.0,0.3108
637.0,0.3169
638.0,0.3216
639.0,0.3188
640.0,0.3168
641.0,0.3173
642.0,0.3167
643.0,0.3211
644.0,0.321
645.0,0.321
646.0,0.3111
647.0,0.3017
648.0,0.3025
649.0,0.2957
650.0,0.3045
651.0,0.3189
652.0,0.2987
653.0,0.3152
654.0,0.3122
655.0,0.297
656.0,0.2658
657.0,0.2734
658.0,0.3088
659.0,0.3119
660.0,0.3138
661.0,0.3164
662.0,0.3158
663.0,0.31
664.0,0.3157
665.0,0.3175
666.0,0.3184
667.0,0.3189
668.0,0.3199
669.0,0.3254
670.0,0.3243
671.0,0.3247
672.0,0.3222
673.0,0.3275
674.0,0.3266
675.0,0.324
676.0,0.3265
677.0,0.3236
678.0,0.3248
679.0,0.3198
680.0,0.3226
681.0,0.3206
682.0,0.3202
683.0,0.3197
684.0,0.3181
685.0,0.3212
686.0,0.3189
687.0,0.1327
688.0,0.1872
689.0,0.1891
690.0,0.2107
691.0,0.2369
692.0,0.2586
693.0,0.2559
694.0,0.2563
695.0,0.2775
696.0,0.2787
697.0,0.3077
698.0,0.3026
699.0,0.287
700.0,0.2831
701.0,0.2767
702.0,0.282
703.0,0.2836
704.0,0.2977
705.0,0.298
706.0,0.2996
707.0,0.3007
708.0,0.3011
709.0,0.3051
710.0,0.3031
711.0,0.304
712.0,0.3048
713.0,0.3001
714.0,0.3018
715.0,0.2887
716.0,0.288
717.0,0.2201
718.0,0.2002
719.0,0.1812
720.0,0.1866
721.0,0.2222
722.0,0.2723
723.0,0.2448
724.0,0.2095
725.0,0.2029
726.0,0.2131
727.0,0.2236
728.0,0.2011
729.0,0.2187
730.0,0.2285
731.0,0.2171
732.0,0.2432
733.0,0.2671
734.0,0.2769
735.0,0.2693
736.0,0.2683
737.0,0.2696
738.0,0.2821
739.0,0.2768
740.0,0.2865
741.0,0.2851
742.0,0.287
743.0,0.2947
744.0,0.2949
745.0,0.2958
746.0,0.2972
747.0,0.298
748.0,0.2975
749.0,0.2942
750.0,0.2941
751.0,0.2912
752.0,0.2926
753.0,0.2942
754.0,0.2948
755.0,0.2931
756.0,0.2931
757.0,0.2935
758.0,0.2897
759.0,0.2781
760.0,0.007311
761.0,0.002494
762.0,0.06767
763.0,0.01615
764.0,0.03674
765.0,0.06744
766.0,0.1093
767.0,0.1736
768.0,0.2359
769.0,0.2498
770.0,0.2687
771.0,0.2757
772.0,0.2778
773.0,0.2801
774.0,0.2791
775.0,0.2772
776.0,0.2807
777.0,0.2771
778.0,0.2754
779.0,0.2756
780.0,0.2742
781.0,0.2745
782.0,0.2763
783.0,0.2717
784.0,0.2731
785.0,0.2707
786.0,0.2734
787.0,0.2643
788.0,0.2591
789.0,0.259
790.0,0.2467
791.0,0.2544
792.0,0.2534
793.0,0.2487
794.0,0.2584
795.0,0.2613
796.0,0.2455
797.0,0.245
798.0,0.26
799.0,0.257
800.0,0.2507
801.0,0.248
802.0,0.247
803.0,0.2441
804.0,0.2454
805.0,0.247
806.0,0.2579
807.0,0.254
808.0,0.2545
809.0,0.2466
810.0,0.2429
811.0,0.2397
812.0,0.2268
813.0,0.2204
814.0,0.1807
815.0,0.1807
816.0,0.1662
817.0,0.1698
818.0,0.1604
819.0,0.1905
820.0,0.1757
821.0,0.2229
822.0,0.2137
823.0,0.12
824.0,0.2006
825.0,0.2193
826.0,0.205
827.0,0.2223
828.0,0.1715
829.0,0.205
830.0,0.2012
831.0,0.2018
832.0,0.1926
833.0,0.2124
834.0,0.2
835.0,0.2325
836.0,0.2134
837.0,0.2332
838.0,0.2213
839.0,0.2299
840.0,0.2361
841.0,0.2308
842.0,0.2343
843.0,0.2374
844.0,0.2325
845.0,0.2425
846.0,0.242
847.0,0.2384
848.0,0.2356
849.0,0.2289
850.0,0.2194
851.0,0.2308
852.0,0.2299
853.0,0.2225
854.0,0.1911
855.0,0.2114
856.0,0.2304
857.0,0.2365
858.0,0.2343
859.0,0.2352
860.0,0.236
861.0,0.2346
862.0,0.2385
863.0,0.2442
864.0,0.232
865.0,0.2301
866.0,0.207
867.0,0.216
868.0,0.2351
869.0,0.2303
870.0,0.2369
871.0,0.2337
872.0,0.2329
873.0,0.2325
874.0,0.2297
875.0,0.225
876.0,0.2273
877.0,0.2297
878.0,0.2319
879.0,0.2284
880.0,0.2235
881.0,0.2195
882.0,0.2239
883.0,0.2254
884.0,0.2241
885.0,0.2257
886.0,0.2126
887.0,0.2169
888.0,0.219
889.0,0.2235
890.0,0.219
891.0,0.22
892.0,0.2102
893.0,0.2007
894.0,0.1865
895.0,0.1678
896.0,0.1561
897.0,0.125
898.0,0.1404
899.0,0.09702
900.0,0.1498
901.0,0.1017
902.0,0.132
903.0,0.1285
904.0,0.1847
905.0,0.1757
906.0,0.1617
907.0,0.1159
908.0,0.1217
909.0,0.1371
910.0,0.1106
911.0,0.1268
912.0,0.1323
913.0,0.1117
914.0,0.1131
915.0,0.1212
916.0,0.1015
917.0,0.1391
918.0,0.103
919.0,0.1456
920.0,0.1561
921.0,0.1613
922.0,0.1363
923.0,0.1569
924.0,0.1369
925.0,0.1346
926.0,0.1344
927.0,0.158
928.0,0.09371
929.0,0.08004
930.0,0.0541
931.0,0.05087
932.0,0.02895
933.0,0.02066
934.0,0.006351
935.0,0.02324
936.0,0.01089
937.0,0.01099
938.0,0.01468
939.0,0.04904
940.0,0.06533
941.0,0.0417
942.0,0.05178
943.0,0.02862
944.0,0.03581
945.0,0.04471
946.0,0.01586
947.0,0.04294
948.0,0.03096
949.0,0.06514
950.0,0.009355
951.0,0.06465
952.0,0.02619
953.0,0.03942
954.0,0.05498
955.0,0.04067
956.0,0.04778
957.0,0.02595
958.0,0.0744
959.0,0.04986
960.0,0.056
961.0,0.07026
962.0,0.06631
963.0,0.08321
964.0,0.07439
965.0,0.08224
966.0,0.08195
967.0,0.08039
968.0,0.1367
969.0,0.1377
970.0,0.1243
971.0,0.1553
972.0,0.1454
973.0,0.1137
974.0,0.1073
975.0,0.115
976.0,0.1018
977.0,0.1318
978.0,0.1185
979.0,0.1275
980.0,0.1183
981.0,0.1547
982.0,0.1431
983.0,0.1349
984.0,0.1658
985.0,0.1421
986.0,0.1728
987.0,0.1654
988.0,0.1654
989.0,0.1751
990.0,0.1643
991.0,0.1751
992.0,0.1766
993.0,0.1684
994.0,0.1771
995.0,0.1776
996.0,0.176
997.0,0.1767
998.0,0.1755
999.0,0.1751
1000.0,0.1727
1001.0,0.1762
1002.0,0.1665
1003.0,0.1728
1004.0,0.1673
1005.0,0.1629
1006.0,0.1684
1007.0,0.1724
1008.0,0.1706
1009.0,0.1688
1010.0,0.1676
1011.0,0.1716
1012.0,0.1693
1013.0,0.1715
1014.0,0.1703
1015.0,0.169
1016.0,0.1682
1017.0,0.1684
1018.0,0.1684
1019.0,0.1629
1020.0,0.1672
1021.0,0.1673
1022.0,0.1653
1023.0,0.167
1024.0,0.1629
1025.0,0.1675
1026.0,0.1663
1027.0,0.166
1028.0,0.1655
1029.0,0.1633
1030.0,0.1651
1031.0,0.1642
1032.0,0.164
1033.0,0.1614
1034.0,0.1615
1035.0,0.162
1036.0,0.1626
1037.0,0.1601
1038.0,0.1607
1039.0,0.1605
1040.0,0.1598
1041.0,0.1603
1042.0,0.1591
1043.0,0.1585
1044.0,0.159
1045.0,0.1567
1046.0,0.1548
1047.0,0.1561
1048.0,0.1568
1049.0,0.1561
1050.0,0.1552
1051.0,0.1548
1052.0,0.154
1053.0,0.1525
1054.0,0.1526
1055.0,0.1524
1056.0,0.1515
1057.0,0.1508
1058.0,0.1468
1059.0,0.1467
1060.0,0.1463
1061.0,0.1459
1062.0,0.1464
1063.0,0.1447
1064.0,0.1465
1065.0,0.1448
1066.0,0.1424
1067.0,0.1441
1068.0,0.1404
1069.0,0.1365
1070.0,0.1407
1071.0,0.1445
1072.0,0.1416
1073.0,0.1398
1074.0,0.1453
1075.0,0.1337
1076.0,0.145
1077.0,0.14
1078.0,0.1361
1079.0,0.1435
1080.0,0.1378
1081.0,0.1311
1082.0,0.137
1083.0,0.1386
1084.0,0.13
1085.0,0.1385
1086.0,0.1207
1087.0,0.1282
1088.0,0.1377
1089.0,0.1289
1090.0,0.1242
1091.0,0.1361
1092.0,0.1365
1093.0,0.1048
1094.0,0.1235
1095.0,0.1094
1096.0,0.1019
1097.0,0.1334
1098.0,0.09849
1099.0,0.1042
1100.0,0.09306
1101.0,0.09582
1102.0,0.08849
1103.0,0.08555
1104.0,0.08603
1105.0,0.1009
1106.0,0.06143
1107.0,0.09301
1108.0,0.06947
1109.0,0.0708
1110.0,0.08976
1111.0,0.04842
1112.0,0.07079
1113.0,0.03389
1114.0,0.0381
1115.0,0.03054
1116.0,0.0193
1117.0,0.003576
1118.0,0.02192
1119.0,0.007279
1120.0,0.00858
1121.0,0.01296
1122.0,0.003126
1123.0,0.007864
1124.0,0.006588
1125.0,0.009477
1126.0,0.001314
1127.0,0.01089
1128.0,0.004001
1129.0,0.004421
1130.0,0.002678
1131.0,0.02934
1132.0,0.02111
1133.0,0.008996
1134.0,0.0009856
1135.0,0.0004513
1136.0,0.00622
1137.0,0.02704
1138.0,0.018
1139.0,0.0385
1140.0,0.02756
1141.0,0.01728
1142.0,0.02176
1143.0,0.03635
1144.0,0.008075
1145.0,0.008586
1146.0,0.009227
1147.0,0.001429
1148.0,0.03042
1149.0,0.02122
1150.0,0.009828
1151.0,0.0179
1152.0,0.02568
1153.0,0.02814
1154.0,0.008888
1155.0,0.04006
1156.0,0.03354
1157.0,0.04358
1158.0,0.04288
1159.0,0.0486
1160.0,0.04003
1161.0,0.05671
1162.0,0.05607
1163.0,0.09062
1164.0,0.07251
1165.0,0.06321
1166.0,0.0673
1167.0,0.07576
1168.0,0.0756
1169.0,0.0786
1170.0,0.09019
1171.0,0.08792
1172.0,0.09291
1173.0,0.09011
1174.0,0.0543
1175.0,0.09125
1176.0,0.1072
1177.0,0.09808
1178.0,0.06578
1179.0,0.1079
1180.0,0.08903
1181.0,0.09207
1182.0,0.05431
1183.0,0.09208
1184.0,0.08306
1185.0,0.0772
1186.0,0.1015
1187.0,0.09339
1188.0,0.05334
1189.0,0.08659
1190.0,0.1001
1191.0,0.08827
1192.0,0.1021
1193.0,0.09558
1194.0,0.1001
1195.0,0.09004
1196.0,0.08434
1197.0,0.1018
1198.0,0.09143
1199.0,0.06866
1200.0,0.0944
1201.0,0.08752
1202.0,0.09025
1203.0,0.08729
1204.0,0.07285
1205.0,0.09471
1206.0,0.109
1207.0,0.08852
1208.0,0.08994
1209.0,0.09212
1210.0,0.09816
1211.0,0.09038
1212.0,0.08376
1213.0,0.1027
1214.0,0.08767
1215.0,0.08564
1216.0,0.1031
1217.0,0.09866
1218.0,0.1021
1219.0,0.09964
1220.0,0.1024
1221.0,0.1047
1222.0,0.1012
1223.0,0.09938
1224.0,0.09668
1225.0,0.1035
1226.0,0.1058
1227.0,0.09248
1228.0,0.1074
1229.0,0.1058
1230.0,0.1031
1231.0,0.1093
1232.0,0.1085
1233.0,0.1004
1234.0,0.1102
1235.0,0.1088
1236.0,0.1101
1237.0,0.1069
1238.0,0.1098
1239.0,0.1083
1240.0,0.109
1241.0,0.1073
1242.0,0.1081
1243.0,0.1073
1244.0,0.1077
1245.0,0.1084
1246.0,0.1078
1247.0,0.107
1248.0,0.1063
1249.0,0.1072
1250.0,0.1062
1251.0,0.1041
1252.0,0.105
1253.0,0.1025
1254.0,0.1002
1255.0,0.1045
1256.0,0.0984
1257.0,0.09722
1258.0,0.1015
1259.0,0.09309
1260.0,0.09415
1261.0,0.08317
1262.0,0.0778
1263.0,0.0778
1264.0,0.06562
1265.0,0.07741
1266.0,0.07074
1267.0,0.07458
1268.0,0.06666
1269.0,0.02221
1270.0,0.07328
1271.0,0.08367
1272.0,0.08448
1273.0,0.08295
1274.0,0.0841
1275.0,0.08633
1276.0,0.08832
1277.0,0.09046
1278.0,0.09442
1279.0,0.09351
1280.0,0.09243
1281.0,0.0893
1282.0,0.08786
1283.0,0.09424
1284.0,0.09618
1285.0,0.09713
1286.0,0.09942
1287.0,0.09606
1288.0,0.09666
1289.0,0.08996
1290.0,0.09595
1291.0,0.09797
1292.0,0.08568
1293.0,0.09462
1294.0,0.09371
1295.0,0.09095
1296.0,0.08314
1297.0,0.07613
1298.0,0.08768
1299.0,0.09527
1300.0,0.07143
1301.0,0.07504
1302.0,0.08765
1303.0,0.07126
1304.0,0.05292
1305.0,0.08542
1306.0,0.0843
1307.0,0.05691
1308.0,0.07277
1309.0,0.08203
1310.0,0.05495
1311.0,0.06783
1312.0,0.06512
1313.0,0.06153
1314.0,0.05209
1315.0,0.04984
1316.0,0.0652
1317.0,0.06045
1318.0,0.06925
1319.0,0.0448
1320.0,0.04499
1321.0,0.05587
1322.0,0.05458
1323.0,0.03386
1324.0,0.04439
1325.0,0.06292
1326.0,0.04954
1327.0,0.04586
1328.0,0.03688
1329.0,0.02184
1330.0,0.03173
1331.0,0.01357
1332.0,0.01534
1333.0,0.02237
1334.0,0.02305
1335.0,0.03288
1336.0,0.02252
1337.0,0.0194
1338.0,0.0205
1339.0,0.02104
1340.0,0.02217
1341.0,0.01755
1342.0,0.01905
1343.0,0.00779
1344.0,0.005145
1345.0,0.006833
1346.0,0.001563
1347.0,0.001336
1348.0,2.156e-05
1349.0,9.985e-05
1350.0,0.0001226
1351.0,9.571e-06
1352.0,1.125e-06
1353.0,5.134e-08
1354.0,1.963e-07
1355.0,1.366e-09
1356.0,2.491e-08
1357.0,3.775e-08
1358.0,1.605e-09
1359.0,2.014e-10
1360.0,7.288e-10
1361.0,8.142e-13
1362.0,2.227e-15
1363.0,9.788e-10
1364.0,4.042e-10
1365.0,7.776e-16
1366.0,4.243e-09
1367.0,1.734e-09
1368.0,6.004e-18
1369.0,1.489e-10
1370.0,7.333e-11
1371.0,4.156e-12
1372.0,9.409e-10
1373.0,1.915e-08
1374.0,9.213e-08
1375.0,1.632e-07
1376.0,1.703e-07
1377.0,7.574e-08
1378.0,7.291e-07
1379.0,3.24e-08
1380.0,4.139e-08
1381.0,1.068e-09
1382.0,8.24e-10
1383.0,1.231e-11
1384.0,1.613e-10
1385.0,7.783e-10
1386.0,7.258e-10
1387.0,8.87e-08
1388.0,1.807e-09
1389.0,3.216e-07
1390.0,2.7e-07
1391.0,1.806e-07
1392.0,1.189e-08
1393.0,6.66e-08
1394.0,3.017e-08
1395.0,2.203e-10
1396.0,1.06e-12
1397.0,2.497e-08
1398.0,7.519e-07
1399.0,4.854e-07
1400.0,4.532e-13
1401.0,1.88e-12
1402.0,3.297e-06
1403.0,2.989e-06
1404.0,7.71e-07
1405.0,1.04e-10
1406.0,1.496e-06
1407.0,2.365e-07
1408.0,1.281e-06
1409.0,3.477e-07
1410.0,3.654e-07
1411.0,2.791e-06
1412.0,5.47e-06
1413.0,0.0001418
1414.0,3.103e-07
1415.0,1.283e-07
1416.0,0.0006971
1417.0,0.000109
1418.0,6.844e-05
1419.0,9.199e-06
1420.0,4.1e-05
