interpolation:linear
wavelength,value
280.0,1.2480000000000001e-20
280.5,3.717e-19
281.0,1.929e-18
281.5,4.354e-19
282.0,1.531e-18
282.5,4.138e-18
283.0,1.349e-17
283.5,2.212e-17
284.0,3.513e-16
284.5,9.995e-16
285.0,1.885e-15
285.5,1.022e-14
286.0,4.194e-14
286.5,1.908e-13
287.0,5.472e-13
287.5,2.087e-12
288.0,5.614e-12
288.5,2.067e-11
289.0,6.42e-11
289.5,2.213e-10
290.0,6.74e-10
290.5,1.476e-09
291.0,3.427e-09
291.5,1.079e-08
292.0,2.75e-08
292.5,4.361e-08
293.0,1.097e-07
293.5,3.352e-07
294.0,6.218e-07
294.5,8.324e-07
295.0,1.672e-06
295.5,4.499e-06
296.0,8.857e-06
296.5,1.264e-05
297.0,1.74e-05
297.5,4.785e-05
298.0,7.706e-05
298.5,7.886e-05
299.0,0.0001769
299.5,0.0003023
300.0,0.0003385
300.5,0.0004999
301.0,0.0009355
301.5,0.001546
302.0,0.001352
302.5,0.002601
303.0,0.004577
303.5,0.005685
304.0,0.005287
304.5,0.007673
305.0,0.01118
305.5,0.01249
306.0,0.01197
306.5,0.01467
307.0,0.021
307.5,0.02697
308.0,0.02833
308.5,0.03289
309.0,0.03202
309.5,0.03578
310.0,0.03555
310.5,0.05727
311.0,0.07122
311.5,0.06848
312.0,0.06709
312.5,0.08053
313.0,0.08672
313.5,0.08479
314.0,0.1043
314.5,0.09043
315.0,0.1184
315.5,0.1001
316.0,0.08585
316.5,0.1214
317.0,0.1507
317.5,0.1576
318.0,0.1216
318.5,0.1479
319.0,0.1736
319.5,0.144
320.0,0.1744
320.5,0.2137
321.0,0.1866
321.5,0.1786
322.0,0.1943
322.5,0.1689
323.0,0.1659
323.5,0.2013
324.0,0.2345
324.5,0.2394
325.0,0.2083
325.5,0.265
326.0,0.3229
326.5,0.321
327.0,0.3208
327.5,0.311
328.0,0.2796
328.5,0.2904
329.0,0.3444
329.5,0.3899
330.0,0.3942
330.5,0.3179
331.0,0.3247
331.5,0.3282
332.0,0.3517
332.5,0.3467
333.0,0.3464
333.5,0.3154
334.0,0.3234
334.5,0.3707
335.0,0.347
335.5,0.4053
336.0,0.2805
336.5,0.3291
337.0,0.2708
337.5,0.3371
338.0,0.3274
338.5,0.3778
339.0,0.3739
339.5,0.3597
340.0,0.4228
340.5,0.3809
341.0,0.3716
341.5,0.3411
342.0,0.4076
342.5,0.3813
343.0,0.4195
343.5,0.3951
344.0,0.292
344.5,0.295
345.0,0.3902
345.5,0.3984
346.0,0.3386
346.5,0.3834
347.0,0.4116
347.5,0.3329
348.0,0.3794
348.5,0.3792
349.0,0.3518
349.5,0.3484
350.0,0.4309
350.5,0.4545
351.0,0.4061
351.5,0.3948
352.0,0.424
352.5,0.3309
353.0,0.4167
353.5,0.4456
354.0,0.4626
354.5,0.4692
355.0,0.4677
355.5,0.4225
356.0,0.4421
356.5,0.3775
357.0,0.312
357.5,0.3819
358.0,0.3027
358.5,0.2587
359.0,0.3619
359.5,0.4612
360.0,0.489
360.5,0.3908
361.0,0.3563
361.5,0.4103
362.0,0.3548
362.5,0.4911
363.0,0.4411
363.5,0.4064
364.0,0.497
364.5,0.4249
365.0,0.4327
365.5,0.5432
366.0,0.5755
366.5,0.5408
367.0,0.5267
367.5,0.5466
368.0,0.4784
368.5,0.4828
369.0,0.5214
369.5,0.5558
370.0,0.5926
370.5,0.46
371.0,0.4915
371.5,0.615
372.0,0.4082
372.5,0.4895
373.0,0.498
373.5,0.3241
374.0,0.4709
374.5,0.39
375.0,0.3792
375.5,0.5662
376.0,0.4694
376.5,0.4865
377.0,0.5151
377.5,0.6027
378.0,0.6534
378.5,0.6176
379.0,0.5098
379.5,0.4657
380.0,0.4842
380.5,0.5866
381.0,0.5879
381.5,0.466
382.0,0.4139
382.5,0.3529
383.0,0.3268
383.5,0.3147
384.0,0.3472
384.5,0.5108
385.0,0.5066
385.5,0.4718
386.0,0.4042
386.5,0.5309
387.0,0.4412
387.5,0.4956
388.0,0.4577
388.5,0.4525
389.0,0.4885
389.5,0.5917
390.0,0.5939
390.5,0.5466
391.0,0.6435
391.5,0.6564
392.0,0.5529
392.5,0.495
393.0,0.2755
393.5,0.2003
394.0,0.4076
394.5,0.5182
395.0,0.6324
395.5,0.6425
396.0,0.5571
396.5,0.3257
397.0,0.2445
397.5,0.4972
398.0,0.6963
398.5,0.7198
399.0,0.7795
399.5,0.777
400.0,0.807
401.0,0.8192
402.0,0.8644
403.0,0.8213
404.0,0.8087
405.0,0.8087
406.0,0.7957
407.0,0.7829
408.0,0.8136
409.0,0.8709
410.0,0.7611
411.0,0.8245
412.0,0.8856
413.0,0.8638
414.0,0.8744
415.0,0.8768
416.0,0.8922
417.0,0.8704
418.0,0.8544
419.0,0.8657
420.0,0.862
421.0,0.9018
422.0,0.8572
423.0,0.8374
424.0,0.8858
425.0,0.8843
426.0,0.8614
427.0,0.8453
428.0,0.8235
429.0,0.78
430.0,0.6827
431.0,0.6767
432.0,0.8738
433.0,0.8786
434.0,0.8159
435.0,0.8522
436.0,0.9602
437.0,0.9473
438.0,0.8626
439.0,0.8923
440.0,0.9208
441.0,0.9541
442.0,1.023
443.0,0.9968
444.0,1.018
445.0,0.9965
446.0,0.9509
447.0,1.028
448.0,1.044
449.0,1.048
450.0,1.077
451.0,1.117
452.0,1.077
453.0,1.013
454.0,1.057
455.0,1.064
456.0,1.089
457.0,1.107
458.0,1.069
459.0,1.064
460.0,1.067
461.0,1.091
462.0,1.1
463.0,1.092
464.0,1.074
465.0,1.06
466.0,1.07
467.0,1.051
468.0,1.063
469.0,1.069
470.0,1.035
471.0,1.034
472.0,1.089
473.0,1.075
474.0,1.077
475.0,1.086
476.0,1.054
477.0,1.057
478.0,1.086
479.0,1.079
480.0,1.081
481.0,1.101
482.0,1.107
483.0,1.093
484.0,1.071
485.0,1.02
486.0,0.8918
487.0,0.9345
488.0,1.025
489.0,1.029
490.0,1.082
491.0,1.063
492.0,1.004
493.0,1.037
494.0,1.047
495.0,1.056
496.0,1.063
497.0,1.079
498.0,1.029
499.0,1.042
500.0,1.012
501.0,0.9933
502.0,0.9795
503.0,1.02
504.0,0.9945
505.0,1.03
506.0,1.063
507.0,1.011
508.0,0.9796
509.0,1.007
510.0,1.001
511.0,1.028
512.0,1.039
513.0,0.9836
514.0,0.9768
515.0,0.9671
516.0,0.9647
517.0,0.8572
518.0,0.9012
519.0,0.9452
520.0,0.9797
521.0,0.989
522.0,0.9899
523.0,0.9721
524.0,1.007
525.0,1.019
526.0,0.9735
527.0,0.9175
528.0,0.9705
529.0,1.023
530.0,1.008
531.0,1.023
532.0,0.9883
533.0,0.9593
534.0,0.9876
535.0,1.009
536.0,1.018
537.0,0.9781
538.0,0.9953
539.0,0.9869
540.0,0.9463
541.0,0.9528
542.0,0.9827
543.0,0.9722
544.0,0.9892
545.0,0.9861
546.0,0.9906
547.0,0.99
548.0,0.9781
549.0,0.981
550.0,0.9927
551.0,0.9806
552.0,0.9874
553.0,0.9698
554.0,0.993
555.0,0.995
556.0,0.9821
557.0,0.9516
558.0,0.9446
559.0,0.927
560.0,0.9387
561.0,0.9509
562.0,0.9441
563.0,0.9701
564.0,0.9437
565.0,0.9357
566.0,0.922
567.0,0.9396
568.0,0.9315
569.0,0.91
570.0,0.9097
571.0,0.904
572.0,0.9261
573.0,0.9361
574.0,0.9332
575.0,0.9159
576.0,0.9075
577.0,0.9174
578.0,0.9034
579.0,0.9067
580.0,0.9236
581.0,0.928
582.0,0.9453
583.0,0.9474
584.0,0.9555
585.0,0.9321
586.0,0.9129
587.0,0.9331
588.0,0.9111
589.0,0.8086
590.0,0.8455
591.0,0.8939
592.0,0.8831
593.0,0.8955
594.0,0.8896
595.0,0.8681
596.0,0.9012
597.0,0.8917
598.0,0.8891
599.0,0.8897
600.0,0.8907
601.0,0.8832
602.0,0.8772
603.0,0.8916
604.0,0.9063
605.0,0.9016
606.0,0.8977
607.0,0.9065
608.0,0.8964
609.0,0.8978
610.0,0.8913
611.0,0.8959
612.0,0.8932
613.0,0.8819
614.0,0.8698
615.0,0.8886
616.0,0.8592
617.0,0.8574
618.0,0.8904
619.0,0.8813
620.0,0.8869
621.0,0.8879
622.0,0.8776
623.0,0.8643
624.0,0.8494
625.0,0.8475
626.0,0.86
627.0,0.8699
628.0,0.8154
629.0,0.8504
630.0,0.8309
631.0,0.8486
632.0,0.8383
633.0,0.8634
634.0,0.8546
635.0,0.8678
636.0,0.8561
637.0,0.87
638.0,0.8781
639.0,0.8682
640.0,0.8596
641.0,0.859
642.0,0.855
643.0,0.8665
644.0,0.8635
645.0,0.865
646.0,0.8452
647.0,0.8359
648.0,0.8368
649.0,0.8206
650.0,0.8236
651.0,0.8591
652.0,0.8245
653.0,0.8477
654.0,0.8381
655.0,0.8075
656.0,0.7153
657.0,0.7345
658.0,0.8228
659.0,0.8285
660.0,0.8319
661.0,0.8378
662.0,0.8397
663.0,0.823
664.0,0.8324
665.0,0.8329
666.0,0.8334
667.0,0.8325
668.0,0.8328
669.0,0.8456
670.0,0.8419
671.0,0.8417
672.0,0.8344
673.0,0.847
674.0,0.8437
675.0,0.836
676.0,0.8417
677.0,0.8333
678.0,0.8357
679.0,0.8221
680.0,0.8287
681.0,0.8232
682.0,0.8222
683.0,0.8206
684.0,0.8165
685.0,0.8234
686.0,0.8186
687.0,0.556
688.0,0.6457
689.0,0.6478
690.0,0.6775
691.0,0.7108
692.0,0.7348
693.0,0.729
694.0,0.7229
695.0,0.7513
696.0,0.7523
697.0,0.7965
698.0,0.7841
699.0,0.7666
700.0,0.7574
701.0,0.7501
702.0,0.7548
703.0,0.7562
704.0,0.7797
705.0,0.7808
706.0,0.7799
707.0,0.7803
708.0,0.782
709.0,0.7827
710.0,0.7829
711.0,0.7817
712.0,0.7791
713.0,0.7715
714.0,0.7743
715.0,0.7503
716.0,0.7509
717.0,0.6559
718.0,0.6031
719.0,0.5529
720.0,0.5795
721.0,0.637
722.0,0.7257
723.0,0.6771
724.0,0.6119
725.0,0.6027
726.0,0.6306
727.0,0.6385
728.0,0.6014
729.0,0.6223
730.0,0.6585
731.0,0.6305
732.0,0.6727
733.0,0.7104
734.0,0.7268
735.0,0.712
736.0,0.7111
737.0,0.714
738.0,0.7238
739.0,0.7096
740.0,0.7277
741.0,0.7203
742.0,0.7208
743.0,0.7391
744.0,0.7368
745.0,0.7369
746.0,0.7402
747.0,0.7419
748.0,0.7403
749.0,0.7318
750.0,0.7314
751.0,0.724
752.0,0.7271
753.0,0.7307
754.0,0.7324
755.0,0.7282
756.0,0.7279
757.0,0.729
758.0,0.7199
759.0,0.706
760.0,0.1284
761.0,0.06942
762.0,0.3727
763.0,0.1924
764.0,0.2838
765.0,0.3728
766.0,0.4524
767.0,0.5656
768.0,0.6486
769.0,0.6613
770.0,0.6827
771.0,0.6878
772.0,0.6891
773.0,0.6938
774.0,0.6905
775.0,0.6852
776.0,0.6935
777.0,0.6844
778.0,0.6802
779.0,0.6808
780.0,0.677
781.0,0.6777
782.0,0.6819
783.0,0.67
784.0,0.6732
785.0,0.6682
786.0,0.6756
787.0,0.6643
788.0,0.6562
789.0,0.656
790.0,0.6393
791.0,0.6441
792.0,0.6393
793.0,0.629
794.0,0.6391
795.0,0.6501
796.0,0.631
797.0,0.6318
798.0,0.6494
799.0,0.6454
800.0,0.6344
801.0,0.6327
802.0,0.6308
803.0,0.6261
804.0,0.6269
805.0,0.6247
806.0,0.6418
807.0,0.6341
808.0,0.6347
809.0,0.6231
810.0,0.6182
811.0,0.6194
812.0,0.6023
813.0,0.5901
814.0,0.5212
815.0,0.5179
816.0,0.4823
817.0,0.4909
818.0,0.473
819.0,0.5271
820.0,0.497
821.0,0.5786
822.0,0.5625
823.0,0.3862
824.0,0.5469
825.0,0.5687
826.0,0.5478
827.0,0.5774
828.0,0.4916
829.0,0.5443
830.0,0.5374
831.0,0.5392
832.0,0.5231
833.0,0.5555
834.0,0.5365
835.0,0.5879
836.0,0.5637
837.0,0.5895
838.0,0.5716
839.0,0.5805
840.0,0.5931
841.0,0.5849
842.0,0.5859
843.0,0.5853
844.0,0.5773
845.0,0.5966
846.0,0.594
847.0,0.5828
848.0,0.5793
849.0,0.5629
850.0,0.5393
851.0,0.5711
852.0,0.567
853.0,0.5457
854.0,0.4712
855.0,0.5176
856.0,0.5657
857.0,0.5783
858.0,0.574
859.0,0.5745
860.0,0.5755
861.0,0.5723
862.0,0.5813
863.0,0.595
864.0,0.5653
865.0,0.5603
866.0,0.5038
867.0,0.5258
868.0,0.5722
869.0,0.5603
870.0,0.5762
871.0,0.5684
872.0,0.5664
873.0,0.5653
874.0,0.5585
875.0,0.5472
876.0,0.5529
877.0,0.5585
878.0,0.5646
879.0,0.5559
880.0,0.544
881.0,0.5358
882.0,0.5474
883.0,0.5491
884.0,0.5466
885.0,0.5508
886.0,0.525
887.0,0.5305
888.0,0.5384
889.0,0.5444
890.0,0.54
891.0,0.539
892.0,0.5236
893.0,0.5073
894.0,0.4899
895.0,0.4633
896.0,0.4366
897.0,0.3756
898.0,0.4095
899.0,0.3121
900.0,0.419
901.0,0.3272
902.0,0.3831
903.0,0.3872
904.0,0.4862
905.0,0.4696
906.0,0.4396
907.0,0.358
908.0,0.3649
909.0,0.395
910.0,0.3499
911.0,0.3726
912.0,0.3894
913.0,0.3551
914.0,0.352
915.0,0.3816
916.0,0.3231
917.0,0.4095
918.0,0.3313
919.0,0.4167
920.0,0.4207
921.0,0.4375
922.0,0.3915
923.0,0.4226
924.0,0.4013
925.0,0.3926
926.0,0.3968
927.0,0.4439
928.0,0.3265
929.0,0.2983
930.0,0.2345
931.0,0.2222
932.0,0.1601
933.0,0.1302
934.0,0.07142
935.0,0.1332
936.0,0.08318
937.0,0.0843
938.0,0.1037
939.0,0.2153
940.0,0.2589
941.0,0.1955
942.0,0.2263
943.0,0.1488
944.0,0.1567
945.0,0.2015
946.0,0.1025
947.0,0.2024
948.0,0.1487
949.0,0.2711
950.0,0.07517
951.0,0.2669
952.0,0.1433
953.0,0.1851
954.0,0.2271
955.0,0.1873
956.0,0.1819
957.0,0.1435
958.0,0.2579
959.0,0.2047
960.0,0.2295
961.0,0.2577
962.0,0.2437
963.0,0.2811
964.0,0.2575
965.0,0.2801
966.0,0.2801
967.0,0.2789
968.0,0.3743
969.0,0.3909
970.0,0.359
971.0,0.4111
972.0,0.3932
973.0,0.3422
974.0,0.3247
975.0,0.3371
976.0,0.32
977.0,0.3644
978.0,0.3461
979.0,0.3625
980.0,0.3408
981.0,0.4087
982.0,0.3907
983.0,0.375
984.0,0.4212
985.0,0.3892
986.0,0.4286
987.0,0.4202
988.0,0.4194
989.0,0.4273
990.0,0.4169
991.0,0.4286
992.0,0.4311
993.0,0.4214
994.0,0.4309
995.0,0.4304
996.0,0.4285
997.0,0.4291
998.0,0.4271
999.0,0.4256
1000.0,0.4225
1001.0,0.4278
1002.0,0.416
1003.0,0.4203
1004.0,0.41
1005.0,0.395
1006.0,0.4104
1007.0,0.4191
1008.0,0.4168
1009.0,0.4146
1010.0,0.4128
1011.0,0.417
1012.0,0.4133
1013.0,0.416
1014.0,0.413
1015.0,0.4103
1016.0,0.4085
1017.0,0.4095
1018.0,0.408
1019.0,0.3992
1020.0,0.4058
1021.0,0.4053
1022.0,0.4021
1023.0,0.4064
1024.0,0.401
1025.0,0.4061
1026.0,0.4044
1027.0,0.4034
1028.0,0.4026
1029.0,0.3978
1030.0,0.4005
1031.0,0.3989
1032.0,0.3978
1033.0,0.3918
1034.0,0.3918
1035.0,0.393
1036.0,0.3951
1037.0,0.3886
1038.0,0.3904
1039.0,0.3901
1040.0,0.3886
1041.0,0.3901
1042.0,0.3874
1043.0,0.3862
1044.0,0.3875
1045.0,0.3822
1046.0,0.378
1047.0,0.3814
1048.0,0.3835
1049.0,0.3821
1050.0,0.3804
1051.0,0.3798
1052.0,0.3783
1053.0,0.3753
1054.0,0.3761
1055.0,0.3763
1056.0,0.375
1057.0,0.3738
1058.0,0.3646
1059.0,0.365
1060.0,0.3644
1061.0,0.364
1062.0,0.3659
1063.0,0.3623
1064.0,0.3666
1065.0,0.3639
1066.0,0.3567
1067.0,0.3613
1068.0,0.3534
1069.0,0.3425
1070.0,0.3541
1071.0,0.3597
1072.0,0.3555
1073.0,0.3504
1074.0,0.3595
1075.0,0.3414
1076.0,0.3592
1077.0,0.3527
1078.0,0.346
1079.0,0.3534
1080.0,0.3473
1081.0,0.3361
1082.0,0.3416
1083.0,0.3426
1084.0,0.3352
1085.0,0.3481
1086.0,0.3175
1087.0,0.3278
1088.0,0.3422
1089.0,0.3317
1090.0,0.3243
1091.0,0.3411
1092.0,0.3403
1093.0,0.2883
1094.0,0.3113
1095.0,0.3004
1096.0,0.2875
1097.0,0.3324
1098.0,0.283
1099.0,0.2952
1100.0,0.2743
1101.0,0.2778
1102.0,0.2653
1103.0,0.2626
1104.0,0.263
1105.0,0.2885
1106.0,0.2202
1107.0,0.2739
1108.0,0.2319
1109.0,0.2324
1110.0,0.2715
1111.0,0.1838
1112.0,0.2306
1113.0,0.1464
1114.0,0.1637
1115.0,0.1357
1116.0,0.1081
1117.0,0.03937
1118.0,0.1177
1119.0,0.05812
1120.0,0.07314
1121.0,0.09726
1122.0,0.04068
1123.0,0.06611
1124.0,0.0558
1125.0,0.07286
1126.0,0.02511
1127.0,0.08221
1128.0,0.0489
1129.0,0.05193
1130.0,0.03405
1131.0,0.1566
1132.0,0.1227
1133.0,0.0774
1134.0,0.01956
1135.0,0.007341
1136.0,0.06443
1137.0,0.1537
1138.0,0.1082
1139.0,0.162
1140.0,0.1351
1141.0,0.1028
1142.0,0.1184
1143.0,0.1685
1144.0,0.0585
1145.0,0.07466
1146.0,0.08052
1147.0,0.02805
1148.0,0.1458
1149.0,0.1162
1150.0,0.06296
1151.0,0.1074
1152.0,0.1324
1153.0,0.1292
1154.0,0.07231
1155.0,0.169
1156.0,0.1521
1157.0,0.1708
1158.0,0.169
1159.0,0.1824
1160.0,0.1557
1161.0,0.192
1162.0,0.193
1163.0,0.2606
1164.0,0.2236
1165.0,0.211
1166.0,0.2095
1167.0,0.2281
1168.0,0.2307
1169.0,0.2361
1170.0,0.2565
1171.0,0.2501
1172.0,0.2546
1173.0,0.256
1174.0,0.1832
1175.0,0.25
1176.0,0.2745
1177.0,0.2637
1178.0,0.1985
1179.0,0.2767
1180.0,0.2473
1181.0,0.2552
1182.0,0.1766
1183.0,0.2512
1184.0,0.2356
1185.0,0.2275
1186.0,0.2692
1187.0,0.2566
1188.0,0.1796
1189.0,0.2391
1190.0,0.2631
1191.0,0.2501
1192.0,0.2667
1193.0,0.2557
1194.0,0.2634
1195.0,0.2494
1196.0,0.2404
1197.0,0.2635
1198.0,0.2412
1199.0,0.2058
1200.0,0.2525
1201.0,0.2437
1202.0,0.2422
1203.0,0.2402
1204.0,0.2104
1205.0,0.2476
1206.0,0.2732
1207.0,0.2416
1208.0,0.2376
1209.0,0.2425
1210.0,0.2524
1211.0,0.2407
1212.0,0.2381
1213.0,0.2643
1214.0,0.2437
1215.0,0.2391
1216.0,0.2635
1217.0,0.2567
1218.0,0.2614
1219.0,0.2582
1220.0,0.2616
1221.0,0.2641
1222.0,0.2574
1223.0,0.255
1224.0,0.2535
1225.0,0.2625
1226.0,0.2641
1227.0,0.244
1228.0,0.2653
1229.0,0.2641
1230.0,0.2597
1231.0,0.2668
1232.0,0.2653
1233.0,0.2565
1234.0,0.2665
1235.0,0.2649
1236.0,0.2668
1237.0,0.2632
1238.0,0.2659
1239.0,0.2625
1240.0,0.2635
1241.0,0.2623
1242.0,0.2617
1243.0,0.2595
1244.0,0.2614
1245.0,0.2625
1246.0,0.261
1247.0,0.26
1248.0,0.2598
1249.0,0.2606
1250.0,0.2591
1251.0,0.2558
1252.0,0.2558
1253.0,0.2538
1254.0,0.2514
1255.0,0.2555
1256.0,0.2486
1257.0,0.2472
1258.0,0.2517
1259.0,0.2429
1260.0,0.2441
1261.0,0.2308
1262.0,0.2241
1263.0,0.2245
1264.0,0.2078
1265.0,0.2231
1266.0,0.215
1267.0,0.2185
1268.0,0.2076
1269.0,0.1308
1270.0,0.2178
1271.0,0.23
1272.0,0.2307
1273.0,0.2283
1274.0,0.229
1275.0,0.2322
1276.0,0.2344
1277.0,0.2359
1278.0,0.2402
1279.0,0.2381
1280.0,0.2351
1281.0,0.2242
1282.0,0.2159
1283.0,0.2326
1284.0,0.2382
1285.0,0.2397
1286.0,0.2429
1287.0,0.2393
1288.0,0.2392
1289.0,0.2319
1290.0,0.237
1291.0,0.2403
1292.0,0.2262
1293.0,0.2357
1294.0,0.2341
1295.0,0.2331
1296.0,0.2228
1297.0,0.211
1298.0,0.2267
1299.0,0.236
1300.0,0.2005
1301.0,0.2065
1302.0,0.2259
1303.0,0.1978
1304.0,0.1694
1305.0,0.2213
1306.0,0.2214
1307.0,0.1728
1308.0,0.198
1309.0,0.2198
1310.0,0.1695
1311.0,0.19
1312.0,0.1849
1313.0,0.1815
1314.0,0.1627
1315.0,0.1607
1316.0,0.1871
1317.0,0.1773
1318.0,0.1924
1319.0,0.1511
1320.0,0.1463
1321.0,0.1701
1322.0,0.1719
1323.0,0.1299
1324.0,0.1482
1325.0,0.1844
1326.0,0.1586
1327.0,0.1514
1328.0,0.1307
1329.0,0.09849
1330.0,0.1281
1331.0,0.07762
1332.0,0.08005
1333.0,0.1114
1334.0,0.09416
1335.0,0.1294
1336.0,0.1025
1337.0,0.0907
1338.0,0.09816
1339.0,0.09769
1340.0,0.09493
1341.0,0.09287
1342.0,0.09754
1343.0,0.06633
1344.0,0.0397
1345.0,0.05725
1346.0,0.02859
1347.0,0.0291
1348.0,0.001924
1349.0,0.006877
1350.0,0.007117
1351.0,0.00176
1352.0,0.0004855
1353.0,2.536e-05
1354.0,8.611e-05
1355.0,7.3e-07
1356.0,1.241e-05
1357.0,1.891e-05
1358.0,8.629e-07
1359.0,1.131e-07
1360.0,4.003e-07
1361.0,4.853e-10
1362.0,1.376e-12
1363.0,5.491e-07
1364.0,2.278e-07
1365.0,5.057e-13
1366.0,2.377e-06
1367.0,9.669e-07
1368.0,4.281e-15
1369.0,8.535e-08
1370.0,4.281e-08
1371.0,2.48e-09
1372.0,5.321e-07
1373.0,1.049e-05
1374.0,4.796e-05
1375.0,8.73e-05
1376.0,7.742e-05
1377.0,3.56e-05
1378.0,0.0003465
1379.0,1.497e-05
1380.0,2.18e-05
1381.0,5.754e-07
1382.0,4.822e-07
1383.0,7.331e-09
1384.0,9.718e-08
1385.0,4.48e-07
1386.0,4.347e-07
1387.0,5.032e-05
1388.0,9.932e-07
1389.0,0.0001677
1390.0,0.0001444
1391.0,9.666e-05
1392.0,6.32e-06
1393.0,3.327e-05
1394.0,1.767e-05
1395.0,1.325e-07
1396.0,6.92e-10
1397.0,1.334e-05
1398.0,0.00039
1399.0,0.0002473
1400.0,3.055e-10
1401.0,1.236e-09
1402.0,0.000675
1403.0,0.0008516
1404.0,0.00026
1405.0,6.539e-08
1406.0,0.0006808
1407.0,5.985e-05
1408.0,0.0005563
1409.0,0.0001884
1410.0,0.00015
1411.0,0.0007484
1412.0,0.001006
1413.0,0.01031
1414.0,0.0001183
1415.0,5.699e-05
1416.0,0.01699
1417.0,0.005091
1418.0,0.005792
1419.0,0.0008966
1420.0,0.003542
1421.0,0.003831
1422.0,0.02219
1423.0,0.004284
1424.0,0.008048
1425.0,0.01182
1426.0,0.01349
1427.0,0.02502
1428.0,0.001809
1429.0,0.0186
1430.0,0.032
1431.0,0.03523
1432.0,0.001423
1433.0,0.02229
1434.0,0.01128
1435.0,0.01106
1436.0,0.02168
1437.0,0.01662
1438.0,0.006924
1439.0,0.02964
1440.0,0.02219
1441.0,0.01673
1442.0,0.01858
1443.0,0.02363
1444.0,0.03291
