interpolation:linear
wavelength,value
280.0,2.076e-21
280.5,6.572e-20
281.0,3.478e-19
281.5,4.088e-19
282.0,1.025e-18
282.5,2.642e-18
283.0,8.465e-18
283.5,1.382e-17
284.0,2.244e-16
284.5,6.482e-16
285.0,1.417e-15
285.5,6.81e-15
286.0,2.718e-14
286.5,1.197e-13
287.0,3.386e-13
287.5,1.282e-12
288.0,3.57e-12
288.5,1.161e-11
289.0,3.243e-11
289.5,1.014e-10
290.0,2.872e-10
290.5,5.936e-10
291.0,1.29e-09
291.5,3.745e-09
292.0,7.732e-09
292.5,1.149e-08
293.0,2.645e-08
293.5,7.072e-08
294.0,1.181e-07
294.5,1.532e-07
295.0,2.762e-07
295.5,6.804e-07
296.0,1.36e-06
296.5,1.982e-06
297.0,2.786e-06
297.5,7.964e-06
298.0,1.334e-05
298.5,1.413e-05
299.0,3.288e-05
299.5,6.049e-05
300.0,7.089e-05
300.5,0.0001102
301.0,0.0002267
301.5,0.0004159
302.0,0.0003878
302.5,0.0007707
303.0,0.001415
303.5,0.001809
304.0,0.001718
304.5,0.002636
305.0,0.004148
305.5,0.004861
306.0,0.004747
306.5,0.005997
307.0,0.009174
307.5,0.01255
308.0,0.01332
308.5,0.01595
309.0,0.0158
309.5,0.01837
310.0,0.0186
310.5,0.03024
311.0,0.03819
311.5,0.03697
312.0,0.03744
312.5,0.04595
313.0,0.05007
313.5,0.04844
314.0,0.06117
314.5,0.05495
315.0,0.07239
315.5,0.0602
316.0,0.05313
316.5,0.07697
317.0,0.09557
317.5,0.09924
318.0,0.07788
318.5,0.09778
319.0,0.1167
319.5,0.09432
320.0,0.1138
320.5,0.1441
321.0,0.1295
321.5,0.1243
322.0,0.1312
322.5,0.1142
323.0,0.1145
323.5,0.1416
324.0,0.1655
324.5,0.1676
325.0,0.1444
325.5,0.1867
326.0,0.2286
326.5,0.2297
327.0,0.2287
327.5,0.2207
328.0,0.1957
328.5,0.2068
329.0,0.2485
329.5,0.2825
330.0,0.2848
330.5,0.2274
331.0,0.2315
331.5,0.2358
332.0,0.2556
332.5,0.2533
333.0,0.2524
333.5,0.228
334.0,0.2335
334.5,0.2702
335.0,0.2543
335.5,0.2972
336.0,0.2057
336.5,0.2407
337.0,0.1974
337.5,0.2454
338.0,0.2402
338.5,0.2774
339.0,0.2747
339.5,0.2643
340.0,0.3106
340.5,0.2801
341.0,0.2733
341.5,0.251
342.0,0.3001
342.5,0.2809
343.0,0.309
343.5,0.291
344.0,0.2151
344.5,0.2173
345.0,0.2877
345.5,0.2939
346.0,0.2499
346.5,0.2831
347.0,0.304
347.5,0.2458
348.0,0.2804
348.5,0.2804
349.0,0.2602
349.5,0.2577
350.0,0.3189
350.5,0.3365
351.0,0.3007
351.5,0.2922
352.0,0.314
352.5,0.2452
353.0,0.309
353.5,0.3305
354.0,0.3432
354.5,0.3481
355.0,0.347
355.5,0.3137
356.0,0.3283
356.5,0.2804
357.0,0.2317
357.5,0.2838
358.0,0.2249
358.5,0.1923
359.0,0.269
359.5,0.3429
360.0,0.3636
360.5,0.2907
361.0,0.2651
361.5,0.3054
362.0,0.2643
362.5,0.3659
363.0,0.3288
363.5,0.303
364.0,0.3708
364.5,0.317
365.0,0.323
365.5,0.4055
366.0,0.4298
366.5,0.4041
367.0,0.3936
367.5,0.4086
368.0,0.3577
368.5,0.3611
369.0,0.3901
369.5,0.4159
370.0,0.4436
370.5,0.3444
371.0,0.3681
371.5,0.4607
372.0,0.3059
372.5,0.3669
373.0,0.3733
373.5,0.243
374.0,0.3532
374.5,0.2926
375.0,0.2846
375.5,0.425
376.0,0.3524
376.5,0.3653
377.0,0.3869
377.5,0.4528
378.0,0.4909
378.5,0.4641
379.0,0.3831
379.5,0.35
380.0,0.364
380.5,0.4411
381.0,0.4422
381.5,0.3507
382.0,0.3116
382.5,0.2658
383.0,0.2461
383.5,0.2372
384.0,0.2617
384.5,0.3851
385.0,0.382
385.5,0.3559
386.0,0.3049
386.5,0.4007
387.0,0.3331
387.5,0.3742
388.0,0.3456
388.5,0.3418
389.0,0.369
389.5,0.4471
390.0,0.4489
390.5,0.4133
391.0,0.4866
391.5,0.4965
392.0,0.4183
392.5,0.3746
393.0,0.2085
393.5,0.1516
394.0,0.3087
394.5,0.3926
395.0,0.4792
395.5,0.4869
396.0,0.4222
396.5,0.2469
397.0,0.1854
397.5,0.3771
398.0,0.5282
398.5,0.5461
399.0,0.5917
399.5,0.5899
400.0,0.6126
401.0,0.6207
402.0,0.6553
403.0,0.6229
404.0,0.6136
405.0,0.6138
406.0,0.6043
407.0,0.5949
408.0,0.6183
409.0,0.6621
410.0,0.5789
411.0,0.6274
412.0,0.6743
413.0,0.6578
414.0,0.6662
415.0,0.6683
416.0,0.6804
417.0,0.664
418.0,0.652
419.0,0.6608
420.0,0.6582
421.0,0.6889
422.0,0.655
423.0,0.6401
424.0,0.6772
425.0,0.6763
426.0,0.6592
427.0,0.6471
428.0,0.6305
429.0,0.5976
430.0,0.5232
431.0,0.5187
432.0,0.6701
433.0,0.674
434.0,0.626
435.0,0.6539
436.0,0.7372
437.0,0.7276
438.0,0.6629
439.0,0.6855
440.0,0.7076
441.0,0.7335
442.0,0.7869
443.0,0.7664
444.0,0.7834
445.0,0.7665
446.0,0.732
447.0,0.7917
448.0,0.804
449.0,0.8076
450.0,0.8305
451.0,0.8615
452.0,0.8302
453.0,0.7811
454.0,0.8158
455.0,0.8209
456.0,0.8406
457.0,0.8547
458.0,0.8254
459.0,0.8213
460.0,0.8235
461.0,0.8426
462.0,0.8494
463.0,0.8436
464.0,0.8301
465.0,0.82
466.0,0.8282
467.0,0.813
468.0,0.8226
469.0,0.827
470.0,0.8006
471.0,0.7998
472.0,0.8427
473.0,0.8318
474.0,0.8328
475.0,0.8397
476.0,0.8143
477.0,0.8164
478.0,0.8392
479.0,0.8343
480.0,0.8362
481.0,0.8521
482.0,0.8569
483.0,0.8469
484.0,0.8297
485.0,0.7907
486.0,0.6915
487.0,0.7249
488.0,0.7953
489.0,0.7977
490.0,0.8394
491.0,0.8251
492.0,0.7792
493.0,0.8048
494.0,0.8129
495.0,0.8199
496.0,0.825
497.0,0.8377
498.0,0.7986
499.0,0.8087
500.0,0.785
501.0,0.7704
502.0,0.7592
503.0,0.7897
504.0,0.7685
505.0,0.797
506.0,0.8227
507.0,0.7829
508.0,0.7589
509.0,0.7805
510.0,0.7766
511.0,0.7977
512.0,0.8065
513.0,0.7634
514.0,0.7583
515.0,0.7507
516.0,0.7489
517.0,0.6655
518.0,0.6996
519.0,0.7338
520.0,0.7604
521.0,0.7676
522.0,0.7682
523.0,0.7543
524.0,0.7811
525.0,0.79
526.0,0.7546
527.0,0.7108
528.0,0.7516
529.0,0.7921
530.0,0.7806
531.0,0.7921
532.0,0.7648
533.0,0.7424
534.0,0.7645
535.0,0.7813
536.0,0.7886
537.0,0.7576
538.0,0.7711
539.0,0.7646
540.0,0.733
541.0,0.7375
542.0,0.7604
543.0,0.7527
544.0,0.7655
545.0,0.7632
546.0,0.7662
547.0,0.7661
548.0,0.7571
549.0,0.7595
550.0,0.7686
551.0,0.7593
552.0,0.7646
553.0,0.7508
554.0,0.7688
555.0,0.7702
556.0,0.7602
557.0,0.7364
558.0,0.7307
559.0,0.7169
560.0,0.7257
561.0,0.7349
562.0,0.7294
563.0,0.749
564.0,0.7284
565.0,0.722
566.0,0.7112
567.0,0.7244
568.0,0.7173
569.0,0.699
570.0,0.699
571.0,0.6951
572.0,0.711
573.0,0.7184
574.0,0.716
575.0,0.7023
576.0,0.6959
577.0,0.7036
578.0,0.6934
579.0,0.6967
580.0,0.7109
581.0,0.7152
582.0,0.7294
583.0,0.7317
584.0,0.7383
585.0,0.7205
586.0,0.7057
587.0,0.7208
588.0,0.7017
589.0,0.6186
590.0,0.6472
591.0,0.6867
592.0,0.6769
593.0,0.6883
594.0,0.683
595.0,0.665
596.0,0.6937
597.0,0.6856
598.0,0.6846
599.0,0.6855
600.0,0.6872
601.0,0.6821
602.0,0.6775
603.0,0.6889
604.0,0.7005
605.0,0.697
606.0,0.6944
607.0,0.7016
608.0,0.6941
609.0,0.6955
610.0,0.6908
611.0,0.6946
612.0,0.6927
613.0,0.6841
614.0,0.675
615.0,0.6899
616.0,0.6674
617.0,0.6662
618.0,0.6919
619.0,0.685
620.0,0.6893
621.0,0.6898
622.0,0.6815
623.0,0.6709
624.0,0.6596
625.0,0.6582
626.0,0.6678
627.0,0.6748
628.0,0.6232
629.0,0.6564
630.0,0.641
631.0,0.6579
632.0,0.6504
633.0,0.6712
634.0,0.6654
635.0,0.6761
636.0,0.6676
637.0,0.6789
638.0,0.686
639.0,0.6785
640.0,0.6723
641.0,0.6721
642.0,0.6693
643.0,0.6784
644.0,0.6765
645.0,0.6774
646.0,0.6608
647.0,0.651
648.0,0.6515
649.0,0.6388
650.0,0.6443
651.0,0.6727
652.0,0.6421
653.0,0.6639
654.0,0.6567
655.0,0.631
656.0,0.5601
657.0,0.5753
658.0,0.6455
659.0,0.6505
660.0,0.6534
661.0,0.658
662.0,0.6589
663.0,0.646
664.0,0.6544
665.0,0.6554
666.0,0.6562
667.0,0.6558
668.0,0.6564
669.0,0.6667
670.0,0.664
671.0,0.6639
672.0,0.6583
673.0,0.6684
674.0,0.666
675.0,0.66
676.0,0.6647
677.0,0.6582
678.0,0.6601
679.0,0.6496
680.0,0.6548
681.0,0.6505
682.0,0.6497
683.0,0.6485
684.0,0.6453
685.0,0.6509
686.0,0.6469
687.0,0.3998
688.0,0.4823
689.0,0.4845
690.0,0.5129
691.0,0.5453
692.0,0.5696
693.0,0.5645
694.0,0.56
695.0,0.5869
696.0,0.5878
697.0,0.6283
698.0,0.6184
699.0,0.6007
700.0,0.5933
701.0,0.5862
702.0,0.5914
703.0,0.5926
704.0,0.6134
705.0,0.6143
706.0,0.6145
707.0,0.6152
708.0,0.6165
709.0,0.6185
710.0,0.6179
711.0,0.6174
712.0,0.6161
713.0,0.6094
714.0,0.6118
715.0,0.5914
716.0,0.5914
717.0,0.5021
718.0,0.4597
719.0,0.4202
720.0,0.4392
721.0,0.4913
722.0,0.569
723.0,0.5262
724.0,0.4699
725.0,0.4608
726.0,0.483
727.0,0.4926
728.0,0.4592
729.0,0.4803
730.0,0.5078
731.0,0.4849
732.0,0.5227
733.0,0.5571
734.0,0.5715
735.0,0.5591
736.0,0.5583
737.0,0.5605
738.0,0.5719
739.0,0.5606
740.0,0.576
741.0,0.5708
742.0,0.5719
743.0,0.5866
744.0,0.5852
745.0,0.5856
746.0,0.5882
747.0,0.5896
748.0,0.5884
749.0,0.5817
750.0,0.5814
751.0,0.5755
752.0,0.578
753.0,0.581
754.0,0.5823
755.0,0.579
756.0,0.5788
757.0,0.5796
758.0,0.5723
759.0,0.559
760.0,0.0676
761.0,0.0316
762.0,0.2544
763.0,0.1116
764.0,0.1809
765.0,0.2543
766.0,0.3266
767.0,0.4274
768.0,0.506
769.0,0.5195
770.0,0.5405
771.0,0.5464
772.0,0.548
773.0,0.5519
774.0,0.5494
775.0,0.5453
776.0,0.5519
777.0,0.5447
778.0,0.5414
779.0,0.5418
780.0,0.5388
781.0,0.5394
782.0,0.5428
783.0,0.5334
784.0,0.536
785.0,0.5319
786.0,0.5377
787.0,0.5269
788.0,0.5198
789.0,0.5194
790.0,0.5037
791.0,0.5099
792.0,0.5064
793.0,0.498
794.0,0.5085
795.0,0.5166
796.0,0.4981
797.0,0.4986
798.0,0.5157
799.0,0.5119
800.0,0.5024
801.0,0.5002
802.0,0.4988
803.0,0.4947
804.0,0.4957
805.0,0.4949
806.0,0.51
807.0,0.5036
808.0,0.5042
809.0,0.4937
810.0,0.489
811.0,0.4882
812.0,0.4726
813.0,0.4618
814.0,0.4007
815.0,0.3985
816.0,0.3703
817.0,0.3776
818.0,0.3622
819.0,0.4097
820.0,0.3841
821.0,0.4557
822.0,0.4416
823.0,0.2898
824.0,0.4262
825.0,0.4476
826.0,0.4285
827.0,0.4544
828.0,0.3789
829.0,0.4264
830.0,0.4202
831.0,0.4218
832.0,0.4077
833.0,0.4369
834.0,0.4193
835.0,0.4653
836.0,0.4423
837.0,0.4667
838.0,0.4507
839.0,0.46
840.0,0.4705
841.0,0.4632
842.0,0.4652
843.0,0.4659
844.0,0.4589
845.0,0.4751
846.0,0.4732
847.0,0.4647
848.0,0.4614
849.0,0.4483
850.0,0.4295
851.0,0.4543
852.0,0.4513
853.0,0.4348
854.0,0.3751
855.0,0.4126
856.0,0.4507
857.0,0.461
858.0,0.4575
859.0,0.4581
860.0,0.4591
861.0,0.4565
862.0,0.4638
863.0,0.4747
864.0,0.451
865.0,0.4471
866.0,0.402
867.0,0.4196
868.0,0.4566
869.0,0.4471
870.0,0.4599
871.0,0.4536
872.0,0.452
873.0,0.4511
874.0,0.4458
875.0,0.4367
876.0,0.4413
877.0,0.4457
878.0,0.4505
879.0,0.4436
880.0,0.4341
881.0,0.4273
882.0,0.4365
883.0,0.4381
884.0,0.436
885.0,0.4393
886.0,0.4178
887.0,0.4229
888.0,0.4287
889.0,0.4344
890.0,0.4298
891.0,0.4295
892.0,0.4159
893.0,0.4015
894.0,0.3847
895.0,0.3601
896.0,0.338
897.0,0.2861
898.0,0.3145
899.0,0.2342
900.0,0.3247
901.0,0.2455
902.0,0.2949
903.0,0.2955
904.0,0.3818
905.0,0.3673
906.0,0.3426
907.0,0.2717
908.0,0.2781
909.0,0.3042
910.0,0.2636
911.0,0.2846
912.0,0.2984
913.0,0.2672
914.0,0.266
915.0,0.2884
916.0,0.2429
917.0,0.314
918.0,0.2488
919.0,0.3214
920.0,0.3281
921.0,0.3414
922.0,0.3012
923.0,0.3301
924.0,0.308
925.0,0.3014
926.0,0.3043
927.0,0.3447
928.0,0.2414
929.0,0.2173
930.0,0.1659
931.0,0.1577
932.0,0.1085
933.0,0.0857
934.0,0.0419
935.0,0.08971
936.0,0.05272
937.0,0.05314
938.0,0.0666
939.0,0.1527
940.0,0.1873
941.0,0.1366
942.0,0.1609
943.0,0.1021
944.0,0.1111
945.0,0.1418
946.0,0.06712
947.0,0.1411
948.0,0.103
949.0,0.1938
950.0,0.04653
951.0,0.1917
952.0,0.09647
953.0,0.1289
954.0,0.163
955.0,0.1309
956.0,0.1306
957.0,0.09609
958.0,0.1914
959.0,0.1464
960.0,0.1641
961.0,0.1886
962.0,0.178
963.0,0.2091
964.0,0.1904
965.0,0.2086
966.0,0.2078
967.0,0.2064
968.0,0.2911
969.0,0.3025
970.0,0.2761
971.0,0.3224
972.0,0.3071
973.0,0.261
974.0,0.247
975.0,0.2588
976.0,0.2422
977.0,0.2826
978.0,0.2656
979.0,0.2801
980.0,0.2622
981.0,0.3207
982.0,0.3043
983.0,0.2908
984.0,0.3332
985.0,0.3032
986.0,0.3407
987.0,0.3321
988.0,0.3316
989.0,0.3408
990.0,0.3296
991.0,0.3416
992.0,0.3438
993.0,0.3342
994.0,0.3439
995.0,0.3437
996.0,0.3419
997.0,0.3425
998.0,0.3408
999.0,0.3396
1000.0,0.3368
1001.0,0.3415
1002.0,0.3302
1003.0,0.3354
1004.0,0.3267
1005.0,0.3154
1006.0,0.3274
1007.0,0.3345
1008.0,0.3323
1009.0,0.3302
1010.0,0.3286
1011.0,0.3328
1012.0,0.3296
1013.0,0.3321
1014.0,0.3298
1015.0,0.3276
1016.0,0.326
1017.0,0.3268
1018.0,0.3258
1019.0,0.3181
1020.0,0.324
1021.0,0.3236
1022.0,0.3209
1023.0,0.3242
1024.0,0.3193
1025.0,0.3243
1026.0,0.3227
1027.0,0.322
1028.0,0.3212
1029.0,0.3174
1030.0,0.3198
1031.0,0.3184
1032.0,0.3176
1033.0,0.3128
1034.0,0.3128
1035.0,0.3138
1036.0,0.3153
1037.0,0.3102
1038.0,0.3116
1039.0,0.3114
1040.0,0.3101
1041.0,0.3113
1042.0,0.3091
1043.0,0.3081
1044.0,0.3091
1045.0,0.3049
1046.0,0.3015
1047.0,0.3041
1048.0,0.3057
1049.0,0.3046
1050.0,0.3031
1051.0,0.3026
1052.0,0.3013
1053.0,0.2988
1054.0,0.2994
1055.0,0.2994
1056.0,0.2983
1057.0,0.2972
1058.0,0.2898
1059.0,0.29
1060.0,0.2895
1061.0,0.2891
1062.0,0.2905
1063.0,0.2876
1064.0,0.291
1065.0,0.2886
1066.0,0.2831
1067.0,0.2867
1068.0,0.2803
1069.0,0.2718
1070.0,0.2808
1071.0,0.2858
1072.0,0.282
1073.0,0.2781
1074.0,0.286
1075.0,0.2697
1076.0,0.2856
1077.0,0.2794
1078.0,0.2737
1079.0,0.2814
1080.0,0.2751
1081.0,0.2654
1082.0,0.2713
1083.0,0.2725
1084.0,0.2643
1085.0,0.2759
1086.0,0.249
1087.0,0.259
1088.0,0.2719
1089.0,0.2617
1090.0,0.2549
1091.0,0.2705
1092.0,0.2702
1093.0,0.2239
1094.0,0.2466
1095.0,0.2338
1096.0,0.2224
1097.0,0.264
1098.0,0.2183
1099.0,0.2285
1100.0,0.2102
1101.0,0.2136
1102.0,0.2026
1103.0,0.1996
1104.0,0.2
1105.0,0.2228
1106.0,0.1619
1107.0,0.21
1108.0,0.1729
1109.0,0.1742
1110.0,0.2073
1111.0,0.1339
1112.0,0.1733
1113.0,0.1035
1114.0,0.1163
1115.0,0.09601
1116.0,0.07278
1117.0,0.02286
1118.0,0.08038
1119.0,0.03659
1120.0,0.04572
1121.0,0.06259
1122.0,0.02359
1123.0,0.04146
1124.0,0.03495
1125.0,0.04641
1126.0,0.0135
1127.0,0.05261
1128.0,0.0285
1129.0,0.03061
1130.0,0.01923
1131.0,0.1073
1132.0,0.08274
1133.0,0.04835
1134.0,0.01032
1135.0,0.003997
1136.0,0.03892
1137.0,0.1039
1138.0,0.07248
1139.0,0.1164
1140.0,0.09408
1141.0,0.06895
1142.0,0.08094
1143.0,0.1184
1144.0,0.03752
1145.0,0.04669
1146.0,0.05031
1147.0,0.01501
1148.0,0.1022
1149.0,0.07922
1150.0,0.0409
1151.0,0.07188
1152.0,0.09138
1153.0,0.09129
1154.0,0.04506
1155.0,0.1213
1156.0,0.1076
1157.0,0.1236
1158.0,0.1222
1159.0,0.1338
1160.0,0.1124
1161.0,0.143
1162.0,0.1433
1163.0,0.2013
1164.0,0.1699
1165.0,0.1575
1166.0,0.1585
1167.0,0.174
1168.0,0.1753
1169.0,0.1803
1170.0,0.1983
1171.0,0.1931
1172.0,0.198
1173.0,0.1979
1174.0,0.1359
1175.0,0.1944
1176.0,0.2167
1177.0,0.206
1178.0,0.1507
1179.0,0.2185
1180.0,0.1919
1181.0,0.1982
1182.0,0.1323
1183.0,0.1958
1184.0,0.1821
1185.0,0.1743
1186.0,0.2111
1187.0,0.1997
1188.0,0.1339
1189.0,0.1858
1190.0,0.2065
1191.0,0.1935
1192.0,0.2097
1193.0,0.2
1194.0,0.2068
1195.0,0.1938
1196.0,0.1856
1197.0,0.2077
1198.0,0.189
1199.0,0.157
1200.0,0.1974
1201.0,0.1891
1202.0,0.189
1203.0,0.1869
1204.0,0.1617
1205.0,0.1944
1206.0,0.2167
1207.0,0.188
1208.0,0.1861
1209.0,0.1902
1210.0,0.199
1211.0,0.1882
1212.0,0.1841
1213.0,0.2087
1214.0,0.1893
1215.0,0.1854
1216.0,0.2081
1217.0,0.2019
1218.0,0.2064
1219.0,0.2035
1220.0,0.2067
1221.0,0.2091
1222.0,0.2034
1223.0,0.2011
1224.0,0.1993
1225.0,0.2077
1226.0,0.2096
1227.0,0.1915
1228.0,0.2111
1229.0,0.2096
1230.0,0.2057
1231.0,0.2127
1232.0,0.2114
1233.0,0.2026
1234.0,0.2129
1235.0,0.2113
1236.0,0.213
1237.0,0.2094
1238.0,0.2123
1239.0,0.2096
1240.0,0.2105
1241.0,0.2091
1242.0,0.209
1243.0,0.2073
1244.0,0.2087
1245.0,0.2096
1246.0,0.2084
1247.0,0.2075
1248.0,0.2072
1249.0,0.208
1250.0,0.2066
1251.0,0.2037
1252.0,0.204
1253.0,0.2019
1254.0,0.1994
1255.0,0.2037
1256.0,0.197
1257.0,0.1957
1258.0,0.2002
1259.0,0.1914
1260.0,0.1925
1261.0,0.1798
1262.0,0.1734
1263.0,0.1737
1264.0,0.158
1265.0,0.1726
1266.0,0.1647
1267.0,0.1686
1268.0,0.1583
1269.0,0.08876
1270.0,0.1676
1271.0,0.1794
1272.0,0.1802
1273.0,0.1781
1274.0,0.179
1275.0,0.1819
1276.0,0.1841
1277.0,0.1858
1278.0,0.1901
1279.0,0.1883
1280.0,0.186
1281.0,0.1778
1282.0,0.172
1283.0,0.1851
1284.0,0.1894
1285.0,0.1907
1286.0,0.1936
1287.0,0.19
1288.0,0.1902
1289.0,0.183
1290.0,0.1886
1291.0,0.1914
1292.0,0.1776
1293.0,0.1872
1294.0,0.1857
1295.0,0.1842
1296.0,0.1745
1297.0,0.164
1298.0,0.1787
1299.0,0.1876
1300.0,0.1551
1301.0,0.1606
1302.0,0.1782
1303.0,0.1535
1304.0,0.1274
1305.0,0.1743
1306.0,0.174
1307.0,0.1315
1308.0,0.1543
1309.0,0.1722
1310.0,0.1287
1311.0,0.1472
1312.0,0.1426
1313.0,0.1392
1314.0,0.1233
1315.0,0.1209
1316.0,0.1442
1317.0,0.1361
1318.0,0.1494
1319.0,0.1126
1320.0,0.11
1321.0,0.1296
1322.0,0.1301
1323.0,0.09445
1324.0,0.1106
1325.0,0.1418
1326.0,0.1195
1327.0,0.1134
1328.0,0.09662
1329.0,0.06951
1330.0,0.09203
1331.0,0.05205
1332.0,0.05489
1333.0,0.07713
1334.0,0.0673
1335.0,0.09395
1336.0,0.07239
1337.0,0.06319
1338.0,0.06829
1339.0,0.0685
1340.0,0.06763
1341.0,0.0637
1342.0,0.06715
1343.0,0.04118
1344.0,0.02501
1345.0,0.03609
1346.0,0.01545
1347.0,0.01529
1348.0,0.0007123
1349.0,0.002797
1350.0,0.003096
1351.0,0.000556
1352.0,0.0001052
1353.0,3.853e-06
1354.0,1.68e-05
1355.0,6.544e-08
1356.0,1.849e-06
1357.0,2.829e-06
1358.0,7.984e-08
1359.0,5.737e-09
1360.0,2.991e-08
1361.0,1.074e-11
1362.0,1.924e-14
1363.0,3.276e-08
1364.0,1.37e-08
1365.0,3.8e-15
1366.0,1.658e-07
1367.0,7.795e-08
1368.0,1.234e-17
1369.0,5.028e-09
1370.0,1.957e-09
1371.0,8.551e-11
1372.0,4.335e-08
1373.0,1.26e-06
1374.0,7.576e-06
1375.0,1.328e-05
1376.0,1.536e-05
1377.0,6.681e-06
1378.0,7.132e-05
1379.0,2.808e-06
1380.0,3.402e-06
1381.0,7.832e-08
1382.0,3.645e-08
1383.0,4.585e-10
1384.0,5.133e-09
1385.0,4.57e-08
1386.0,2.731e-08
1387.0,6.536e-06
1388.0,1.364e-07
1389.0,3.015e-05
1390.0,2.553e-05
1391.0,1.637e-05
1392.0,1.005e-06
1393.0,6.088e-06
1394.0,2.019e-06
1395.0,1.151e-08
1396.0,1.8e-11
1397.0,2.194e-06
1398.0,7.728e-05
1399.0,4.975e-05
1400.0,5.727e-12
1401.0,3.61e-11
1402.0,0.0002037
1403.0,0.0002372
1404.0,6.978e-05
1405.0,4.568e-09
1406.0,0.0001593
1407.0,1.601e-05
1408.0,0.0001337
1409.0,3.625e-05
1410.0,3.427e-05
1411.0,0.0002119
1412.0,0.0003168
1413.0,0.004328
1414.0,2.788e-05
1415.0,1.217e-05
1416.0,0.008671
1417.0,0.002167
1418.0,0.002338
1419.0,0.0003466
1420.0,0.001418
1421.0,0.001576
1422.0,0.01139
1423.0,0.002101
1424.0,0.004083
1425.0,0.005734
1426.0,0.007122
1427.0,0.01444
1428.0,0.0006477
1429.0,0.01008
1430.0,0.01908
1431.0,0.02144
1432.0,0.0005026
1433.0,0.013
1434.0,0.006301
1435.0,0.005273
1436.0,0.01172
1437.0,0.009037
1438.0,0.003398
