interpolation:linear
wavelength,value
280.0,3.389e-21
280.5,1.058e-19
281.0,5.573e-19
281.5,3.534e-19
282.0,1.073e-18
282.5,2.845e-18
283.0,9.242e-18
283.5,1.515e-17
284.0,2.47e-16
284.5,7.125e-16
285.0,1.61e-15
285.5,7.874e-15
286.0,3.153e-14
286.5,1.392e-13
287.0,3.94e-13
287.5,1.49e-12
288.0,3.9e-12
288.5,1.31e-11
289.0,3.752e-11
289.5,1.196e-10
290.0,3.435e-10
290.5,7.169e-10
291.0,1.574e-09
291.5,4.684e-09
292.0,1.033e-08
292.5,1.565e-08
293.0,3.702e-08
293.5,1.03e-07
294.0,1.775e-07
294.5,2.298e-07
295.0,4.285e-07
295.5,1.143e-06
296.0,2.291e-06
296.5,3.341e-06
297.0,4.693e-06
297.5,1.337e-05
298.0,2.228e-05
298.5,2.347e-05
299.0,5.427e-05
299.5,9.835e-05
300.0,0.0001141
300.5,0.0001754
301.0,0.000353
301.5,0.0006315
302.0,0.0005799
302.5,0.001142
303.0,0.002072
303.5,0.002626
304.0,0.002478
304.5,0.003735
305.0,0.005734
305.5,0.006616
306.0,0.006422
306.5,0.008031
307.0,0.01202
307.5,0.0161
308.0,0.01703
308.5,0.02018
309.0,0.01986
309.5,0.02279
310.0,0.02293
310.5,0.03716
311.0,0.0467
311.5,0.04511
312.0,0.04519
312.5,0.05506
313.0,0.05976
313.5,0.05802
314.0,0.07263
314.5,0.06449
315.0,0.08478
315.5,0.0709
316.0,0.06198
316.5,0.08907
317.0,0.1106
317.5,0.1151
318.0,0.08984
318.5,0.1116
319.0,0.1325
319.5,0.108
320.0,0.1305
320.5,0.1634
321.0,0.1455
321.5,0.1395
322.0,0.1488
322.5,0.1294
323.0,0.1289
323.5,0.1584
324.0,0.1849
324.5,0.1878
325.0,0.1623
325.5,0.2087
326.0,0.2552
326.5,0.2555
327.0,0.2547
327.5,0.2461
328.0,0.2193
328.5,0.2304
329.0,0.2757
329.5,0.313
330.0,0.3158
330.5,0.253
331.0,0.2578
331.5,0.262
332.0,0.2829
332.5,0.2798
333.0,0.2791
333.5,0.2528
334.0,0.259
334.5,0.2988
335.0,0.2807
335.5,0.3279
336.0,0.227
336.5,0.2659
337.0,0.2182
337.5,0.2715
338.0,0.265
338.5,0.306
339.0,0.3029
339.5,0.2915
340.0,0.3426
340.5,0.3089
341.0,0.3013
341.5,0.2767
342.0,0.3308
342.5,0.3095
343.0,0.3405
343.5,0.3207
344.0,0.237
344.5,0.2395
345.0,0.317
345.5,0.3237
346.0,0.2752
346.5,0.3117
347.0,0.3347
347.5,0.2707
348.0,0.3087
348.5,0.3086
349.0,0.2864
349.5,0.2836
350.0,0.3509
350.5,0.3702
351.0,0.3308
351.5,0.3216
352.0,0.3455
352.5,0.2697
353.0,0.3398
353.5,0.3634
354.0,0.3774
354.5,0.3828
355.0,0.3816
355.5,0.3448
356.0,0.3609
356.5,0.3082
357.0,0.2547
357.5,0.3119
358.0,0.2472
358.5,0.2113
359.0,0.2956
359.5,0.3768
360.0,0.3995
360.5,0.3194
361.0,0.2913
361.5,0.3355
362.0,0.2902
362.5,0.4018
363.0,0.3611
363.5,0.3327
364.0,0.407
364.5,0.348
365.0,0.3545
365.5,0.445
366.0,0.4717
366.5,0.4433
367.0,0.4318
367.5,0.4483
368.0,0.3924
368.5,0.3961
369.0,0.4278
369.5,0.4562
370.0,0.4864
370.5,0.3776
371.0,0.4036
371.5,0.5051
372.0,0.3353
372.5,0.4022
373.0,0.4092
373.5,0.2663
374.0,0.3871
374.5,0.3207
375.0,0.3118
375.5,0.4656
376.0,0.3861
376.5,0.4002
377.0,0.4238
377.5,0.4959
378.0,0.5377
378.5,0.5083
379.0,0.4196
379.5,0.3833
380.0,0.3986
380.5,0.483
381.0,0.4842
381.5,0.3839
382.0,0.3411
382.5,0.2909
383.0,0.2694
383.5,0.2595
384.0,0.2864
384.5,0.4213
385.0,0.4179
385.5,0.3893
386.0,0.3335
386.5,0.4383
387.0,0.3643
387.5,0.4092
388.0,0.3779
388.5,0.3737
389.0,0.4035
389.5,0.4888
390.0,0.4907
390.5,0.4517
391.0,0.5319
391.5,0.5426
392.0,0.4571
392.5,0.4094
393.0,0.2279
393.5,0.1657
394.0,0.3372
394.5,0.4289
395.0,0.5234
395.5,0.5318
396.0,0.4612
396.5,0.2697
397.0,0.2025
397.5,0.4118
398.0,0.5768
398.5,0.5963
399.0,0.646
399.5,0.644
400.0,0.6688
401.0,0.678
402.0,0.7157
403.0,0.6802
404.0,0.67
405.0,0.6702
406.0,0.6596
407.0,0.6493
408.0,0.6748
409.0,0.7225
410.0,0.6316
411.0,0.6844
412.0,0.7354
413.0,0.7174
414.0,0.7265
415.0,0.7287
416.0,0.7418
417.0,0.7237
418.0,0.7106
419.0,0.7202
420.0,0.7172
421.0,0.7506
422.0,0.7136
423.0,0.6973
424.0,0.7377
425.0,0.7366
426.0,0.7178
427.0,0.7046
428.0,0.6865
429.0,0.6505
430.0,0.5695
431.0,0.5645
432.0,0.7291
433.0,0.7333
434.0,0.6811
435.0,0.7114
436.0,0.8019
437.0,0.7913
438.0,0.7208
439.0,0.7455
440.0,0.7694
441.0,0.7975
442.0,0.8555
443.0,0.8333
444.0,0.8516
445.0,0.8332
446.0,0.7955
447.0,0.8603
448.0,0.8737
449.0,0.8774
450.0,0.9022
451.0,0.9358
452.0,0.9018
453.0,0.8483
454.0,0.8858
455.0,0.8914
456.0,0.9127
457.0,0.9279
458.0,0.8963
459.0,0.8918
460.0,0.8942
461.0,0.9148
462.0,0.9221
463.0,0.9158
464.0,0.9009
465.0,0.8898
466.0,0.8986
467.0,0.8821
468.0,0.8926
469.0,0.8973
470.0,0.8687
471.0,0.8677
472.0,0.9143
473.0,0.9024
474.0,0.9036
475.0,0.9113
476.0,0.8839
477.0,0.8863
478.0,0.9109
479.0,0.9055
480.0,0.9074
481.0,0.9245
482.0,0.9295
483.0,0.9185
484.0,0.8998
485.0,0.8574
486.0,0.7497
487.0,0.7858
488.0,0.8621
489.0,0.8648
490.0,0.9099
491.0,0.8943
492.0,0.8446
493.0,0.8723
494.0,0.881
495.0,0.8886
496.0,0.8941
497.0,0.9079
498.0,0.8655
499.0,0.8765
500.0,0.8509
501.0,0.8352
502.0,0.8233
503.0,0.8565
504.0,0.8341
505.0,0.8646
506.0,0.8925
507.0,0.8493
508.0,0.823
509.0,0.8463
510.0,0.8419
511.0,0.8647
512.0,0.8741
513.0,0.8274
514.0,0.8218
515.0,0.8136
516.0,0.8116
517.0,0.7212
518.0,0.7582
519.0,0.7953
520.0,0.8242
521.0,0.832
522.0,0.8327
523.0,0.8177
524.0,0.8468
525.0,0.8566
526.0,0.8183
527.0,0.7709
528.0,0.8152
529.0,0.8592
530.0,0.8468
531.0,0.8593
532.0,0.8298
533.0,0.8055
534.0,0.8294
535.0,0.8475
536.0,0.8554
537.0,0.8217
538.0,0.8363
539.0,0.8293
540.0,0.795
541.0,0.8001
542.0,0.825
543.0,0.8165
544.0,0.8305
545.0,0.828
546.0,0.8315
547.0,0.8312
548.0,0.8214
549.0,0.8239
550.0,0.8337
551.0,0.8236
552.0,0.8294
553.0,0.8145
554.0,0.834
555.0,0.8356
556.0,0.8247
557.0,0.799
558.0,0.7929
559.0,0.778
560.0,0.7876
561.0,0.7977
562.0,0.7918
563.0,0.8133
564.0,0.791
565.0,0.7841
566.0,0.7725
567.0,0.787
568.0,0.7796
569.0,0.7603
570.0,0.7602
571.0,0.7558
572.0,0.7735
573.0,0.7816
574.0,0.7791
575.0,0.7643
576.0,0.7574
577.0,0.7657
578.0,0.7544
579.0,0.7577
580.0,0.7727
581.0,0.7771
582.0,0.7921
583.0,0.7944
584.0,0.8015
585.0,0.782
586.0,0.7659
587.0,0.7825
588.0,0.7625
589.0,0.6738
590.0,0.7047
591.0,0.7468
592.0,0.7368
593.0,0.7485
594.0,0.743
595.0,0.724
596.0,0.754
597.0,0.7455
598.0,0.744
599.0,0.7449
600.0,0.7464
601.0,0.7405
602.0,0.7356
603.0,0.7479
604.0,0.7603
605.0,0.7565
606.0,0.7535
607.0,0.7612
608.0,0.7529
609.0,0.7544
610.0,0.7491
611.0,0.7531
612.0,0.751
613.0,0.7416
614.0,0.7316
615.0,0.7477
616.0,0.7232
617.0,0.7218
618.0,0.7497
619.0,0.7421
620.0,0.7468
621.0,0.7474
622.0,0.7385
623.0,0.7272
624.0,0.7148
625.0,0.7132
626.0,0.7237
627.0,0.7315
628.0,0.679
629.0,0.7128
630.0,0.6962
631.0,0.7133
632.0,0.705
633.0,0.7271
634.0,0.7204
635.0,0.7319
636.0,0.7225
637.0,0.7345
638.0,0.7419
639.0,0.7337
640.0,0.7268
641.0,0.7265
642.0,0.7234
643.0,0.7331
644.0,0.7309
645.0,0.732
646.0,0.7144
647.0,0.7048
648.0,0.7054
649.0,0.6916
650.0,0.6965
651.0,0.7269
652.0,0.6951
653.0,0.7173
654.0,0.7095
655.0,0.6823
656.0,0.6053
657.0,0.6216
658.0,0.6971
659.0,0.7023
660.0,0.7053
661.0,0.7103
662.0,0.7115
663.0,0.6975
664.0,0.7062
665.0,0.7071
666.0,0.7078
667.0,0.7073
668.0,0.7078
669.0,0.7188
670.0,0.7158
671.0,0.7157
672.0,0.7096
673.0,0.7204
674.0,0.7178
675.0,0.7113
676.0,0.7162
677.0,0.7092
678.0,0.7113
679.0,0.6998
680.0,0.7055
681.0,0.7008
682.0,0.6999
683.0,0.6986
684.0,0.6951
685.0,0.7011
686.0,0.6969
687.0,0.4446
688.0,0.5295
689.0,0.5317
690.0,0.5606
691.0,0.5933
692.0,0.6176
693.0,0.6123
694.0,0.6073
695.0,0.6346
696.0,0.6356
697.0,0.6772
698.0,0.6666
699.0,0.6489
700.0,0.641
701.0,0.6339
702.0,0.6389
703.0,0.6402
704.0,0.6618
705.0,0.6628
706.0,0.6626
707.0,0.6633
708.0,0.6647
709.0,0.6663
710.0,0.6659
711.0,0.6653
712.0,0.6636
713.0,0.6566
714.0,0.6591
715.0,0.6376
716.0,0.6378
717.0,0.5466
718.0,0.5011
719.0,0.4584
720.0,0.4796
721.0,0.5335
722.0,0.6146
723.0,0.57
724.0,0.5109
725.0,0.5018
726.0,0.5257
727.0,0.5348
728.0,0.5003
729.0,0.5214
730.0,0.5515
731.0,0.527
732.0,0.5662
733.0,0.6017
734.0,0.6167
735.0,0.6036
736.0,0.6028
737.0,0.6051
738.0,0.6161
739.0,0.604
740.0,0.6202
741.0,0.6143
742.0,0.6152
743.0,0.631
744.0,0.6294
745.0,0.6297
746.0,0.6325
747.0,0.634
748.0,0.6327
749.0,0.6255
750.0,0.6251
751.0,0.6188
752.0,0.6214
753.0,0.6246
754.0,0.626
755.0,0.6225
756.0,0.6222
757.0,0.6231
758.0,0.6153
759.0,0.6018
760.0,0.08346
761.0,0.04095
762.0,0.2879
763.0,0.1334
764.0,0.2095
765.0,0.2879
766.0,0.3627
767.0,0.4674
768.0,0.5475
769.0,0.5608
770.0,0.5819
771.0,0.5875
772.0,0.5891
773.0,0.5933
774.0,0.5905
775.0,0.586
776.0,0.5932
777.0,0.5854
778.0,0.5818
779.0,0.5823
780.0,0.579
781.0,0.5797
782.0,0.5833
783.0,0.5732
784.0,0.576
785.0,0.5716
786.0,0.5778
787.0,0.5669
788.0,0.5595
789.0,0.5592
790.0,0.5432
791.0,0.549
792.0,0.5451
793.0,0.5362
794.0,0.5466
795.0,0.5555
796.0,0.5368
797.0,0.5374
798.0,0.5546
799.0,0.5508
800.0,0.5408
801.0,0.5388
802.0,0.5372
803.0,0.533
804.0,0.5339
805.0,0.5326
806.0,0.5484
807.0,0.5416
808.0,0.5422
809.0,0.5314
810.0,0.5266
811.0,0.5264
812.0,0.5103
813.0,0.4991
814.0,0.4356
815.0,0.433
816.0,0.4026
817.0,0.4104
818.0,0.3942
819.0,0.4437
820.0,0.4167
821.0,0.4914
822.0,0.4767
823.0,0.3174
824.0,0.4613
825.0,0.4828
826.0,0.4631
827.0,0.4902
828.0,0.4115
829.0,0.4606
830.0,0.4542
831.0,0.4559
832.0,0.4411
833.0,0.4714
834.0,0.4533
835.0,0.501
836.0,0.4776
837.0,0.5025
838.0,0.4859
839.0,0.4951
840.0,0.5062
841.0,0.4986
842.0,0.5003
843.0,0.5007
844.0,0.4934
845.0,0.5105
846.0,0.5084
847.0,0.4991
848.0,0.4957
849.0,0.4816
850.0,0.4615
851.0,0.4883
852.0,0.485
853.0,0.4671
854.0,0.4031
855.0,0.4432
856.0,0.4842
857.0,0.4952
858.0,0.4914
859.0,0.492
860.0,0.493
861.0,0.4903
862.0,0.498
863.0,0.5098
864.0,0.4843
865.0,0.4801
866.0,0.4317
867.0,0.4505
868.0,0.4902
869.0,0.4801
870.0,0.4938
871.0,0.4871
872.0,0.4854
873.0,0.4844
874.0,0.4786
875.0,0.4689
876.0,0.4738
877.0,0.4786
878.0,0.4837
879.0,0.4763
880.0,0.4661
881.0,0.4589
882.0,0.4688
883.0,0.4704
884.0,0.4682
885.0,0.4718
886.0,0.449
887.0,0.4542
888.0,0.4606
889.0,0.4664
890.0,0.4619
891.0,0.4614
892.0,0.4473
893.0,0.4323
894.0,0.4153
895.0,0.39
896.0,0.3666
897.0,0.3119
898.0,0.342
899.0,0.2566
900.0,0.352
901.0,0.269
902.0,0.3204
903.0,0.322
904.0,0.4121
905.0,0.397
906.0,0.3707
907.0,0.2965
908.0,0.3032
909.0,0.3305
910.0,0.2884
911.0,0.3099
912.0,0.3247
913.0,0.2925
914.0,0.2907
915.0,0.3152
916.0,0.2659
917.0,0.3416
918.0,0.2724
919.0,0.349
920.0,0.3549
921.0,0.3693
922.0,0.3273
923.0,0.357
924.0,0.335
925.0,0.3278
926.0,0.3311
927.0,0.3736
928.0,0.2658
929.0,0.2404
930.0,0.1853
931.0,0.176
932.0,0.123
933.0,0.09808
934.0,0.04984
935.0,0.1019
936.0,0.06111
937.0,0.06168
938.0,0.07683
939.0,0.1705
940.0,0.2078
941.0,0.1532
942.0,0.1796
943.0,0.1153
944.0,0.1241
945.0,0.1587
946.0,0.07695
947.0,0.1584
948.0,0.1159
949.0,0.2158
950.0,0.0543
951.0,0.2132
952.0,0.1095
953.0,0.1448
954.0,0.1812
955.0,0.1468
956.0,0.1451
957.0,0.1093
958.0,0.2105
959.0,0.1629
960.0,0.1826
961.0,0.2083
962.0,0.1968
963.0,0.2298
964.0,0.2096
965.0,0.2291
966.0,0.2285
967.0,0.2272
968.0,0.3152
969.0,0.3281
970.0,0.3001
971.0,0.3481
972.0,0.3321
973.0,0.2844
974.0,0.2694
975.0,0.2814
976.0,0.2646
977.0,0.3063
978.0,0.2888
979.0,0.304
980.0,0.2849
981.0,0.3463
982.0,0.3294
983.0,0.3152
984.0,0.3588
985.0,0.3281
986.0,0.3663
987.0,0.3577
988.0,0.3572
989.0,0.366
990.0,0.355
991.0,0.3669
992.0,0.3692
993.0,0.3596
994.0,0.3692
995.0,0.369
996.0,0.3671
997.0,0.3678
998.0,0.3659
999.0,0.3647
1000.0,0.3618
1001.0,0.3667
1002.0,0.3552
1003.0,0.3601
1004.0,0.3509
1005.0,0.3386
1006.0,0.3515
1007.0,0.3591
1008.0,0.3569
1009.0,0.3547
1010.0,0.3531
1011.0,0.3573
1012.0,0.354
1013.0,0.3565
1014.0,0.354
1015.0,0.3517
1016.0,0.35
1017.0,0.3509
1018.0,0.3497
1019.0,0.3418
1020.0,0.3478
1021.0,0.3474
1022.0,0.3445
1023.0,0.3481
1024.0,0.3431
1025.0,0.3481
1026.0,0.3465
1027.0,0.3457
1028.0,0.3449
1029.0,0.3408
1030.0,0.3433
1031.0,0.3419
1032.0,0.3409
1033.0,0.3358
1034.0,0.3358
1035.0,0.3369
1036.0,0.3386
1037.0,0.3331
1038.0,0.3345
1039.0,0.3343
1040.0,0.3329
1041.0,0.3342
1042.0,0.3319
1043.0,0.3308
1044.0,0.3319
1045.0,0.3274
1046.0,0.3238
1047.0,0.3266
1048.0,0.3284
1049.0,0.3272
1050.0,0.3256
1051.0,0.3251
1052.0,0.3237
1053.0,0.3211
1054.0,0.3217
1055.0,0.3218
1056.0,0.3206
1057.0,0.3195
1058.0,0.3116
1059.0,0.3119
1060.0,0.3113
1061.0,0.3109
1062.0,0.3125
1063.0,0.3093
1064.0,0.313
1065.0,0.3106
1066.0,0.3046
1067.0,0.3084
1068.0,0.3016
1069.0,0.2924
1070.0,0.3021
1071.0,0.3073
1072.0,0.3034
1073.0,0.2991
1074.0,0.3074
1075.0,0.2905
1076.0,0.307
1077.0,0.3007
1078.0,0.2947
1079.0,0.3024
1080.0,0.2961
1081.0,0.2859
1082.0,0.2917
1083.0,0.2929
1084.0,0.2849
1085.0,0.2969
1086.0,0.2689
1087.0,0.279
1088.0,0.2924
1089.0,0.2821
1090.0,0.275
1091.0,0.2911
1092.0,0.2906
1093.0,0.2426
1094.0,0.2654
1095.0,0.2532
1096.0,0.2413
1097.0,0.2839
1098.0,0.237
1099.0,0.2479
1100.0,0.2288
1101.0,0.2322
1102.0,0.2207
1103.0,0.2178
1104.0,0.2182
1105.0,0.2418
1106.0,0.1786
1107.0,0.2285
1108.0,0.1899
1109.0,0.191
1110.0,0.2259
1111.0,0.1482
1112.0,0.1898
1113.0,0.1157
1114.0,0.1297
1115.0,0.1073
1116.0,0.08264
1117.0,0.02726
1118.0,0.09089
1119.0,0.0425
1120.0,0.05326
1121.0,0.07223
1122.0,0.02819
1123.0,0.04825
1124.0,0.04069
1125.0,0.05372
1126.0,0.01655
1127.0,0.0608
1128.0,0.03399
1129.0,0.03638
1130.0,0.02314
1131.0,0.1212
1132.0,0.09399
1133.0,0.05635
1134.0,0.01272
1135.0,0.00487
1136.0,0.04588
1137.0,0.118
1138.0,0.08251
1139.0,0.1295
1140.0,0.1057
1141.0,0.07846
1142.0,0.09153
1143.0,0.1327
1144.0,0.04331
1145.0,0.0544
1146.0,0.05863
1147.0,0.01843
1148.0,0.1146
1149.0,0.08965
1150.0,0.04697
1151.0,0.08184
1152.0,0.103
1153.0,0.1021
1154.0,0.0525
1155.0,0.135
1156.0,0.1203
1157.0,0.1371
1158.0,0.1356
1159.0,0.1478
1160.0,0.1247
1161.0,0.1571
1162.0,0.1576
1163.0,0.2185
1164.0,0.1854
1165.0,0.1729
1166.0,0.1732
1167.0,0.1896
1168.0,0.1913
1169.0,0.1965
1170.0,0.2152
1171.0,0.2096
1172.0,0.2144
1173.0,0.2147
1174.0,0.1494
1175.0,0.2105
1176.0,0.2335
1177.0,0.2228
1178.0,0.1644
1179.0,0.2354
1180.0,0.2079
1181.0,0.2147
1182.0,0.145
1183.0,0.2119
1184.0,0.1976
1185.0,0.1897
1186.0,0.228
1187.0,0.2162
1188.0,0.1471
1189.0,0.2012
1190.0,0.2229
1191.0,0.2099
1192.0,0.2262
1193.0,0.2162
1194.0,0.2232
1195.0,0.2099
1196.0,0.2015
1197.0,0.2239
1198.0,0.2041
1199.0,0.1711
1200.0,0.2134
1201.0,0.2049
1202.0,0.2044
1203.0,0.2024
1204.0,0.1758
1205.0,0.2099
1206.0,0.2331
1207.0,0.2035
1208.0,0.2011
1209.0,0.2054
1210.0,0.2145
1211.0,0.2034
1212.0,0.1997
1213.0,0.2249
1214.0,0.205
1215.0,0.201
1216.0,0.2242
1217.0,0.2178
1218.0,0.2224
1219.0,0.2194
1220.0,0.2226
1221.0,0.2251
1222.0,0.219
1223.0,0.2168
1224.0,0.2151
1225.0,0.2236
1226.0,0.2255
1227.0,0.2068
1228.0,0.2269
1229.0,0.2255
1230.0,0.2214
1231.0,0.2285
1232.0,0.2271
1233.0,0.2183
1234.0,0.2285
1235.0,0.2269
1236.0,0.2287
1237.0,0.2251
1238.0,0.2279
1239.0,0.225
1240.0,0.2259
1241.0,0.2246
1242.0,0.2243
1243.0,0.2225
1244.0,0.224
1245.0,0.225
1246.0,0.2237
1247.0,0.2228
1248.0,0.2225
1249.0,0.2233
1250.0,0.2219
1251.0,0.2189
1252.0,0.2191
1253.0,0.217
1254.0,0.2146
1255.0,0.2188
1256.0,0.212
1257.0,0.2107
1258.0,0.2152
1259.0,0.2064
1260.0,0.2076
1261.0,0.1946
1262.0,0.1881
1263.0,0.1885
1264.0,0.1724
1265.0,0.1873
1266.0,0.1793
1267.0,0.1831
1268.0,0.1726
1269.0,0.1007
1270.0,0.1822
1271.0,0.1941
1272.0,0.1949
1273.0,0.1927
1274.0,0.1935
1275.0,0.1966
1276.0,0.1987
1277.0,0.2004
1278.0,0.2047
1279.0,0.2028
1280.0,0.2003
1281.0,0.1913
1282.0,0.1848
1283.0,0.1989
1284.0,0.2036
1285.0,0.205
1286.0,0.208
1287.0,0.2044
1288.0,0.2044
1289.0,0.1972
1290.0,0.2027
1291.0,0.2057
1292.0,0.1918
1293.0,0.2013
1294.0,0.1998
1295.0,0.1984
1296.0,0.1885
1297.0,0.1776
1298.0,0.1927
1299.0,0.2017
1300.0,0.1682
1301.0,0.1739
1302.0,0.1921
1303.0,0.1663
1304.0,0.1395
1305.0,0.188
1306.0,0.1878
1307.0,0.1434
1308.0,0.167
1309.0,0.1861
1310.0,0.1405
1311.0,0.1596
1312.0,0.1548
1313.0,0.1514
1314.0,0.1347
1315.0,0.1324
1316.0,0.1566
1317.0,0.148
1318.0,0.1619
1319.0,0.1236
1320.0,0.1204
1321.0,0.1413
1322.0,0.1422
1323.0,0.1046
1324.0,0.1214
1325.0,0.1541
1326.0,0.1308
1327.0,0.1243
1328.0,0.1064
1329.0,0.07774
1330.0,0.1023
1331.0,0.0592
1332.0,0.06198
1333.0,0.08682
1334.0,0.07491
1335.0,0.1041
1336.0,0.08095
1337.0,0.07095
1338.0,0.07674
1339.0,0.07677
1340.0,0.07539
1341.0,0.07194
1342.0,0.07573
1343.0,0.04807
1344.0,0.02903
1345.0,0.04193
1346.0,0.01891
1347.0,0.01889
1348.0,0.0009859
1349.0,0.003761
1350.0,0.004078
1351.0,0.0008132
1352.0,0.0001752
1353.0,7.174e-06
1354.0,2.879e-05
1355.0,1.446e-07
1356.0,3.459e-06
1357.0,5.291e-06
1358.0,1.746e-07
1359.0,1.529e-08
1360.0,7.02e-08
1361.0,3.691e-11
1362.0,7.475e-14
1363.0,8.363e-08
1364.0,3.456e-08
1365.0,1.731e-14
1366.0,4.024e-07
1367.0,1.788e-07
1368.0,6.145e-17
1369.0,1.274e-08
1370.0,5.388e-09
1371.0,2.563e-10
1372.0,9.889e-08
1373.0,2.539e-06
1374.0,1.395e-05
1375.0,2.491e-05
1376.0,2.617e-05
1377.0,1.158e-05
1378.0,0.0001207
1379.0,4.856e-06
1380.0,6.275e-06
1381.0,1.501e-07
1382.0,8.529e-08
1383.0,1.132e-09
1384.0,1.35e-08
1385.0,9.653e-08
1386.0,6.806e-08
1387.0,1.293e-05
1388.0,2.609e-07
1389.0,5.33e-05
1390.0,4.551e-05
1391.0,2.949e-05
1392.0,1.836e-06
1393.0,1.064e-05
1394.0,4.148e-06
1395.0,2.56e-08
1396.0,5.9e-11
1397.0,3.969e-06
1398.0,0.0001327
1399.0,8.486e-05
1400.0,2.079e-11
1401.0,1.142e-10
1402.0,0.0003019
1403.0,0.0003618
1404.0,0.0001079
1405.0,1.093e-08
1406.0,0.0002587
1407.0,2.46e-05
1408.0,0.0002149
1409.0,6.285e-05
1410.0,5.571e-05
1411.0,0.0003213
1412.0,0.0004633
1413.0,0.005774
1414.0,4.48e-05
1415.0,2.019e-05
1416.0,0.01081
1417.0,0.002861
1418.0,0.003158
1419.0,0.0004744
1420.0,0.00192
1421.0,0.002103
1422.0,0.01419
1423.0,0.002649
1424.0,0.005088
1425.0,0.007264
1426.0,0.008767
1427.0,0.01728
1428.0,0.0009072
1429.0,0.01232
1430.0,0.02258
1431.0,0.02521
1432.0,0.0007069
1433.0,0.01549
1434.0,0.007614
1435.0,0.00672
1436.0,0.01433
1437.0,0.01102
