interpolation:linear
wavelength,value
280.0,1.897e-20
280.5,5.548e-19
281.0,2.863e-18
281.5,4.145e-19
282.0,1.616e-18
282.5,4.465e-18
283.0,1.472e-17
283.5,2.421e-17
284.0,3.848e-16
284.5,1.092e-15
285.0,1.946e-15
285.5,1.09e-14
286.0,4.513e-14
286.5,2.079e-13
287.0,6.004e-13
287.5,2.305e-12
288.0,6.541e-12
288.5,2.492e-11
289.0,8.017e-11
289.5,2.871e-10
290.0,9.02e-10
290.5,2.028e-09
291.0,4.856e-09
291.5,1.588e-08
292.0,4.306e-08
292.5,6.83e-08
293.0,1.717e-07
293.5,5.229e-07
294.0,9.681e-07
294.5,1.288e-06
295.0,2.572e-06
295.5,6.657e-06
296.0,1.297e-05
296.5,1.832e-05
297.0,2.498e-05
297.5,6.768e-05
298.0,0.0001076
298.5,0.000109
299.0,0.0002418
299.5,0.0004055
300.0,0.000449
300.5,0.0006551
301.0,0.0012
301.5,0.00194
302.0,0.001675
302.5,0.003202
303.0,0.005587
303.5,0.006901
304.0,0.006394
304.5,0.009192
305.0,0.01322
305.5,0.01465
306.0,0.014
306.5,0.01707
307.0,0.02417
307.5,0.03074
308.0,0.03223
308.5,0.03724
309.0,0.03615
309.5,0.04013
310.0,0.03975
310.5,0.06393
311.0,0.0793
311.5,0.07616
312.0,0.0742
312.5,0.08874
313.0,0.09538
313.5,0.0934
314.0,0.1144
314.5,0.0986
315.0,0.1289
315.5,0.1093
316.0,0.09333
316.5,0.1314
317.0,0.1632
317.5,0.1708
318.0,0.1314
318.5,0.159
319.0,0.1862
319.5,0.155
320.0,0.1879
320.5,0.229
321.0,0.199
321.5,0.1904
322.0,0.2082
322.5,0.1809
323.0,0.1771
323.5,0.2143
324.0,0.2494
324.5,0.2549
325.0,0.2222
325.5,0.2819
326.0,0.3433
326.5,0.3406
327.0,0.3406
327.5,0.3304
328.0,0.2978
328.5,0.3084
329.0,0.3649
329.5,0.4128
330.0,0.4176
330.5,0.3372
331.0,0.3447
331.5,0.3479
332.0,0.3722
332.5,0.3666
333.0,0.3664
333.5,0.334
334.0,0.3426
334.5,0.3921
335.0,0.3667
335.5,0.4283
336.0,0.2964
336.5,0.3478
337.0,0.2864
337.5,0.3566
338.0,0.3459
338.5,0.3991
339.0,0.3949
339.5,0.3799
340.0,0.4466
340.5,0.4023
341.0,0.3924
341.5,0.3602
342.0,0.4304
342.5,0.4026
343.0,0.4429
343.5,0.4171
344.0,0.3082
344.5,0.3114
345.0,0.4119
345.5,0.4205
346.0,0.3573
346.5,0.4046
347.0,0.4344
347.5,0.3512
348.0,0.4003
348.5,0.4001
349.0,0.3712
349.5,0.3675
350.0,0.4545
350.5,0.4794
351.0,0.4284
351.5,0.4164
352.0,0.4472
352.5,0.3489
353.0,0.4395
353.5,0.4699
354.0,0.4878
354.5,0.4947
355.0,0.4931
355.5,0.4455
356.0,0.4661
356.5,0.398
357.0,0.3289
357.5,0.4026
358.0,0.3191
358.5,0.2727
359.0,0.3814
359.5,0.4861
360.0,0.5153
360.5,0.4119
361.0,0.3755
361.5,0.4323
362.0,0.3738
362.5,0.5174
363.0,0.4647
363.5,0.428
364.0,0.5235
364.5,0.4475
365.0,0.4558
365.5,0.572
366.0,0.6061
366.5,0.5695
367.0,0.5546
367.5,0.5756
368.0,0.5037
368.5,0.5083
369.0,0.5489
369.5,0.5851
370.0,0.6238
370.5,0.4842
371.0,0.5174
371.5,0.6473
372.0,0.4296
372.5,0.5152
373.0,0.5241
373.5,0.341
374.0,0.4955
374.5,0.4104
375.0,0.399
375.5,0.5957
376.0,0.4938
376.5,0.5118
377.0,0.5419
377.5,0.634
378.0,0.6873
378.5,0.6497
379.0,0.5362
379.5,0.4898
380.0,0.5093
380.5,0.6169
381.0,0.6183
381.5,0.4901
382.0,0.4353
382.5,0.3711
383.0,0.3436
383.5,0.3309
384.0,0.3651
384.5,0.537
385.0,0.5325
385.5,0.496
386.0,0.4248
386.5,0.5581
387.0,0.4638
387.5,0.5209
388.0,0.481
388.5,0.4755
389.0,0.5133
389.5,0.6218
390.0,0.624
390.5,0.5743
391.0,0.6761
391.5,0.6896
392.0,0.5809
392.5,0.5201
393.0,0.2894
393.5,0.2104
394.0,0.4281
394.5,0.5444
395.0,0.6643
395.5,0.6749
396.0,0.5851
396.5,0.3421
397.0,0.2567
397.5,0.5221
398.0,0.7313
398.5,0.7559
399.0,0.8185
399.5,0.8159
400.0,0.8473
401.0,0.8604
402.0,0.9078
403.0,0.8625
404.0,0.8492
405.0,0.8492
406.0,0.8354
407.0,0.822
408.0,0.8542
409.0,0.9143
410.0,0.7989
411.0,0.8654
412.0,0.9294
413.0,0.9065
414.0,0.9176
415.0,0.92
416.0,0.9361
417.0,0.9132
418.0,0.8963
419.0,0.9081
420.0,0.9042
421.0,0.9459
422.0,0.8991
423.0,0.8783
424.0,0.929
425.0,0.9273
426.0,0.9032
427.0,0.8863
428.0,0.8634
429.0,0.8178
430.0,0.7157
431.0,0.7094
432.0,0.9159
433.0,0.921
434.0,0.8552
435.0,0.8932
436.0,1.006
437.0,0.9927
438.0,0.9039
439.0,0.9351
440.0,0.9648
441.0,0.9997
442.0,1.072
443.0,1.044
444.0,1.067
445.0,1.044
446.0,0.9961
447.0,1.077
448.0,1.094
449.0,1.098
450.0,1.128
451.0,1.17
452.0,1.127
453.0,1.06
454.0,1.107
455.0,1.114
456.0,1.14
457.0,1.159
458.0,1.12
459.0,1.114
460.0,1.117
461.0,1.143
462.0,1.151
463.0,1.143
464.0,1.124
465.0,1.11
466.0,1.12
467.0,1.1
468.0,1.113
469.0,1.119
470.0,1.083
471.0,1.082
472.0,1.14
473.0,1.125
474.0,1.127
475.0,1.137
476.0,1.103
477.0,1.106
478.0,1.137
479.0,1.13
480.0,1.132
481.0,1.153
482.0,1.159
483.0,1.144
484.0,1.121
485.0,1.068
486.0,0.9331
487.0,0.9777
488.0,1.073
489.0,1.076
490.0,1.132
491.0,1.112
492.0,1.05
493.0,1.085
494.0,1.096
495.0,1.105
496.0,1.112
497.0,1.129
498.0,1.076
499.0,1.09
500.0,1.058
501.0,1.039
502.0,1.025
503.0,1.067
504.0,1.041
505.0,1.077
506.0,1.112
507.0,1.058
508.0,1.025
509.0,1.053
510.0,1.048
511.0,1.076
512.0,1.087
513.0,1.029
514.0,1.022
515.0,1.012
516.0,1.009
517.0,0.8966
518.0,0.9427
519.0,0.9888
520.0,1.025
521.0,1.035
522.0,1.036
523.0,1.017
524.0,1.054
525.0,1.066
526.0,1.019
527.0,0.9601
528.0,1.016
529.0,1.071
530.0,1.055
531.0,1.071
532.0,1.034
533.0,1.004
534.0,1.034
535.0,1.056
536.0,1.066
537.0,1.023
538.0,1.041
539.0,1.033
540.0,0.9902
541.0,0.9971
542.0,1.028
543.0,1.017
544.0,1.035
545.0,1.032
546.0,1.037
547.0,1.036
548.0,1.024
549.0,1.027
550.0,1.039
551.0,1.026
552.0,1.033
553.0,1.015
554.0,1.039
555.0,1.041
556.0,1.028
557.0,0.9959
558.0,0.9886
559.0,0.9703
560.0,0.9825
561.0,0.9954
562.0,0.9884
563.0,1.016
564.0,0.9881
565.0,0.9797
566.0,0.9655
567.0,0.984
568.0,0.9757
569.0,0.9535
570.0,0.9531
571.0,0.9471
572.0,0.9705
573.0,0.981
574.0,0.978
575.0,0.96
576.0,0.9512
577.0,0.9614
578.0,0.9467
579.0,0.95
580.0,0.9674
581.0,0.9719
582.0,0.9898
583.0,0.9918
584.0,1.0
585.0,0.9756
586.0,0.9556
587.0,0.9768
588.0,0.9543
589.0,0.8479
590.0,0.8865
591.0,0.9366
592.0,0.9256
593.0,0.9383
594.0,0.9322
595.0,0.91
596.0,0.944
597.0,0.9342
598.0,0.9312
599.0,0.9318
600.0,0.9327
601.0,0.9247
602.0,0.9183
603.0,0.9333
604.0,0.9487
605.0,0.9437
606.0,0.9396
607.0,0.9487
608.0,0.938
609.0,0.9395
610.0,0.9326
611.0,0.9373
612.0,0.9345
613.0,0.9226
614.0,0.9098
615.0,0.9295
616.0,0.8987
617.0,0.8968
618.0,0.9312
619.0,0.9217
620.0,0.9276
621.0,0.9286
622.0,0.9179
623.0,0.9041
624.0,0.8885
625.0,0.8864
626.0,0.8996
627.0,0.9101
628.0,0.855
629.0,0.8903
630.0,0.87
631.0,0.8879
632.0,0.877
633.0,0.9029
634.0,0.8936
635.0,0.9072
636.0,0.8949
637.0,0.9093
638.0,0.9177
639.0,0.9072
640.0,0.8982
641.0,0.8974
642.0,0.8932
643.0,0.9051
644.0,0.902
645.0,0.9036
646.0,0.8831
647.0,0.874
648.0,0.875
649.0,0.8581
650.0,0.8605
651.0,0.8974
652.0,0.862
653.0,0.8855
654.0,0.8754
655.0,0.8438
656.0,0.7472
657.0,0.7672
658.0,0.8592
659.0,0.8652
660.0,0.8687
661.0,0.8747
662.0,0.8768
663.0,0.8594
664.0,0.869
665.0,0.8694
666.0,0.8699
667.0,0.8689
668.0,0.8691
669.0,0.8824
670.0,0.8785
671.0,0.8782
672.0,0.8706
673.0,0.8836
674.0,0.8803
675.0,0.8722
676.0,0.8781
677.0,0.8693
678.0,0.8717
679.0,0.8576
680.0,0.8644
681.0,0.8587
682.0,0.8576
683.0,0.8559
684.0,0.8517
685.0,0.8589
686.0,0.8539
687.0,0.5888
688.0,0.6796
689.0,0.6817
690.0,0.7115
691.0,0.7449
692.0,0.7689
693.0,0.7629
694.0,0.7565
695.0,0.7852
696.0,0.7863
697.0,0.8311
698.0,0.8182
699.0,0.8008
700.0,0.7912
701.0,0.7839
702.0,0.7885
703.0,0.7899
704.0,0.8139
705.0,0.8151
706.0,0.8139
707.0,0.8143
708.0,0.8161
709.0,0.8164
710.0,0.8168
711.0,0.8154
712.0,0.8126
713.0,0.8048
714.0,0.8077
715.0,0.783
716.0,0.7837
717.0,0.6878
718.0,0.633
719.0,0.5806
720.0,0.6089
721.0,0.6672
722.0,0.7579
723.0,0.7084
724.0,0.6414
725.0,0.6322
726.0,0.6613
727.0,0.6688
728.0,0.631
729.0,0.6517
730.0,0.6896
731.0,0.6607
732.0,0.7037
733.0,0.742
734.0,0.7588
735.0,0.7435
736.0,0.7425
737.0,0.7455
738.0,0.7551
739.0,0.7403
740.0,0.7589
741.0,0.751
742.0,0.7514
743.0,0.7704
744.0,0.768
745.0,0.768
746.0,0.7715
747.0,0.7731
748.0,0.7715
749.0,0.7627
750.0,0.7622
751.0,0.7545
752.0,0.7577
753.0,0.7615
754.0,0.7632
755.0,0.7589
756.0,0.7585
757.0,0.7596
758.0,0.7502
759.0,0.7362
760.0,0.143
761.0,0.07913
762.0,0.398
763.0,0.2109
764.0,0.3064
765.0,0.3981
766.0,0.4788
767.0,0.5942
768.0,0.6779
769.0,0.6904
770.0,0.7119
771.0,0.7168
772.0,0.718
773.0,0.723
774.0,0.7194
775.0,0.7139
776.0,0.7226
777.0,0.7131
778.0,0.7087
779.0,0.7093
780.0,0.7053
781.0,0.7061
782.0,0.7104
783.0,0.698
784.0,0.7014
785.0,0.6962
786.0,0.704
787.0,0.6925
788.0,0.6843
789.0,0.6841
790.0,0.6671
791.0,0.6717
792.0,0.6666
793.0,0.656
794.0,0.6659
795.0,0.6775
796.0,0.6583
797.0,0.6592
798.0,0.6769
799.0,0.6729
800.0,0.6616
801.0,0.6599
802.0,0.658
803.0,0.6532
804.0,0.6539
805.0,0.6513
806.0,0.6689
807.0,0.661
808.0,0.6615
809.0,0.6497
810.0,0.6448
811.0,0.6464
812.0,0.629
813.0,0.6166
814.0,0.5462
815.0,0.5427
816.0,0.5057
817.0,0.5145
818.0,0.4961
819.0,0.5513
820.0,0.5205
821.0,0.6039
822.0,0.5874
823.0,0.4065
824.0,0.5719
825.0,0.5936
826.0,0.5725
827.0,0.6027
828.0,0.515
829.0,0.5687
830.0,0.5617
831.0,0.5635
832.0,0.547
833.0,0.5799
834.0,0.5607
835.0,0.6131
836.0,0.5886
837.0,0.6147
838.0,0.5964
839.0,0.6053
840.0,0.6184
841.0,0.6099
842.0,0.6107
843.0,0.6099
844.0,0.6017
845.0,0.6216
846.0,0.6188
847.0,0.6071
848.0,0.6036
849.0,0.5864
850.0,0.5618
851.0,0.595
852.0,0.5908
853.0,0.5685
854.0,0.491
855.0,0.5392
856.0,0.5893
857.0,0.6023
858.0,0.598
859.0,0.5984
860.0,0.5994
861.0,0.5961
862.0,0.6055
863.0,0.6198
864.0,0.5888
865.0,0.5836
866.0,0.5248
867.0,0.5476
868.0,0.5959
869.0,0.5835
870.0,0.6002
871.0,0.592
872.0,0.5899
873.0,0.5887
874.0,0.5817
875.0,0.5699
876.0,0.5759
877.0,0.5817
878.0,0.588
879.0,0.579
880.0,0.5666
881.0,0.5581
882.0,0.5702
883.0,0.572
884.0,0.5694
885.0,0.5737
886.0,0.5471
887.0,0.5526
888.0,0.5609
889.0,0.567
890.0,0.5626
891.0,0.5615
892.0,0.5457
893.0,0.5291
894.0,0.5115
895.0,0.4846
896.0,0.457
897.0,0.3943
898.0,0.4293
899.0,0.3286
900.0,0.4385
901.0,0.3443
902.0,0.4014
903.0,0.4062
904.0,0.5077
905.0,0.4908
906.0,0.4597
907.0,0.376
908.0,0.3831
909.0,0.4138
910.0,0.368
911.0,0.391
912.0,0.4083
913.0,0.3736
914.0,0.37
915.0,0.401
916.0,0.34
917.0,0.4293
918.0,0.3487
919.0,0.4365
920.0,0.4399
921.0,0.4573
922.0,0.4103
923.0,0.4417
924.0,0.4206
925.0,0.4115
926.0,0.416
927.0,0.4644
928.0,0.3444
929.0,0.3154
930.0,0.2493
931.0,0.236
932.0,0.1713
933.0,0.14
934.0,0.07823
935.0,0.1426
936.0,0.08998
937.0,0.09131
938.0,0.1119
939.0,0.2286
940.0,0.2741
941.0,0.2081
942.0,0.2402
943.0,0.1589
944.0,0.1665
945.0,0.2144
946.0,0.1103
947.0,0.2157
948.0,0.1586
949.0,0.2875
950.0,0.08171
951.0,0.2829
952.0,0.1535
953.0,0.1973
954.0,0.2407
955.0,0.1994
956.0,0.1929
957.0,0.1539
958.0,0.2718
959.0,0.2172
960.0,0.2434
961.0,0.2723
962.0,0.2577
963.0,0.2963
964.0,0.2717
965.0,0.2951
966.0,0.2953
967.0,0.2942
968.0,0.3915
969.0,0.4092
970.0,0.3762
971.0,0.4293
972.0,0.4109
973.0,0.3591
974.0,0.3409
975.0,0.3534
976.0,0.3363
977.0,0.3813
978.0,0.3628
979.0,0.3796
980.0,0.3572
981.0,0.4268
982.0,0.4085
983.0,0.3925
984.0,0.4393
985.0,0.407
986.0,0.4466
987.0,0.4383
988.0,0.4375
989.0,0.4451
990.0,0.4348
991.0,0.4465
992.0,0.449
993.0,0.4394
994.0,0.4488
995.0,0.4482
996.0,0.4463
997.0,0.4469
998.0,0.4448
999.0,0.4432
1000.0,0.4402
1001.0,0.4456
1002.0,0.4336
1003.0,0.4377
1004.0,0.4271
1005.0,0.4113
1006.0,0.4275
1007.0,0.4365
1008.0,0.4342
1009.0,0.4319
1010.0,0.4301
1011.0,0.4343
1012.0,0.4306
1013.0,0.4332
1014.0,0.4302
1015.0,0.4273
1016.0,0.4254
1017.0,0.4265
1018.0,0.4249
1019.0,0.4159
1020.0,0.4226
1021.0,0.422
1022.0,0.4188
1023.0,0.4232
1024.0,0.4179
1025.0,0.4229
1026.0,0.4211
1027.0,0.4202
1028.0,0.4193
1029.0,0.4143
1030.0,0.4171
1031.0,0.4155
1032.0,0.4143
1033.0,0.408
1034.0,0.408
1035.0,0.4093
1036.0,0.4114
1037.0,0.4048
1038.0,0.4066
1039.0,0.4063
1040.0,0.4047
1041.0,0.4063
1042.0,0.4035
1043.0,0.4022
1044.0,0.4036
1045.0,0.3981
1046.0,0.3938
1047.0,0.3973
1048.0,0.3995
1049.0,0.3981
1050.0,0.3962
1051.0,0.3957
1052.0,0.3941
1053.0,0.391
1054.0,0.3918
1055.0,0.3921
1056.0,0.3907
1057.0,0.3895
1058.0,0.38
1059.0,0.3804
1060.0,0.3798
1061.0,0.3794
1062.0,0.3814
1063.0,0.3776
1064.0,0.3821
1065.0,0.3794
1066.0,0.3718
1067.0,0.3767
1068.0,0.3685
1069.0,0.3571
1070.0,0.3692
1071.0,0.3749
1072.0,0.3706
1073.0,0.3652
1074.0,0.3746
1075.0,0.3561
1076.0,0.3743
1077.0,0.3678
1078.0,0.3609
1079.0,0.3683
1080.0,0.3621
1081.0,0.3506
1082.0,0.356
1083.0,0.357
1084.0,0.3498
1085.0,0.3629
1086.0,0.3316
1087.0,0.3419
1088.0,0.3567
1089.0,0.3461
1090.0,0.3386
1091.0,0.3556
1092.0,0.3547
1093.0,0.3016
1094.0,0.3246
1095.0,0.3141
1096.0,0.301
1097.0,0.3464
1098.0,0.2964
1099.0,0.309
1100.0,0.2877
1101.0,0.2912
1102.0,0.2783
1103.0,0.2758
1104.0,0.2761
1105.0,0.302
1106.0,0.2325
1107.0,0.2872
1108.0,0.2443
1109.0,0.2446
1110.0,0.2848
1111.0,0.1943
1112.0,0.2426
1113.0,0.1556
1114.0,0.1738
1115.0,0.1441
1116.0,0.1158
1117.0,0.04324
1118.0,0.1257
1119.0,0.06295
1120.0,0.07927
1121.0,0.1049
1122.0,0.0446
1123.0,0.07161
1124.0,0.06045
1125.0,0.07873
1126.0,0.02786
1127.0,0.08877
1128.0,0.0536
1129.0,0.05681
1130.0,0.03757
1131.0,0.1672
1132.0,0.1314
1133.0,0.08388
1134.0,0.02179
1135.0,0.008147
1136.0,0.07019
1137.0,0.1644
1138.0,0.1159
1139.0,0.1717
1140.0,0.1439
1141.0,0.1102
1142.0,0.1265
1143.0,0.1791
1144.0,0.06317
1145.0,0.08089
1146.0,0.08725
1147.0,0.03115
1148.0,0.155
1149.0,0.1242
1150.0,0.06789
1151.0,0.1151
1152.0,0.1412
1153.0,0.1372
1154.0,0.07847
1155.0,0.1791
1156.0,0.1615
1157.0,0.1808
1158.0,0.1789
1159.0,0.1926
1160.0,0.165
1161.0,0.2023
1162.0,0.2034
1163.0,0.2729
1164.0,0.2348
1165.0,0.2222
1166.0,0.2201
1167.0,0.2394
1168.0,0.2422
1169.0,0.2477
1170.0,0.2686
1171.0,0.2619
1172.0,0.2663
1173.0,0.268
1174.0,0.1932
1175.0,0.2615
1176.0,0.2864
1177.0,0.2756
1178.0,0.2085
1179.0,0.2887
1180.0,0.2588
1181.0,0.267
1182.0,0.1859
1183.0,0.2627
1184.0,0.2467
1185.0,0.2386
1186.0,0.2811
1187.0,0.2683
1188.0,0.1892
1189.0,0.2501
1190.0,0.2747
1191.0,0.2618
1192.0,0.2785
1193.0,0.2672
1194.0,0.2751
1195.0,0.2609
1196.0,0.2517
1197.0,0.2749
1198.0,0.252
1199.0,0.216
1200.0,0.2639
1201.0,0.2551
1202.0,0.2532
1203.0,0.2512
1204.0,0.2205
1205.0,0.2586
1206.0,0.2848
1207.0,0.2527
1208.0,0.2483
1209.0,0.2533
1210.0,0.2635
1211.0,0.2515
1212.0,0.2493
1213.0,0.2758
1214.0,0.2549
1215.0,0.2502
1216.0,0.2749
1217.0,0.268
1218.0,0.2727
1219.0,0.2695
1220.0,0.2729
1221.0,0.2754
1222.0,0.2685
1223.0,0.2661
1224.0,0.2647
1225.0,0.2737
1226.0,0.2753
1227.0,0.2549
1228.0,0.2765
1229.0,0.2754
1230.0,0.2708
1231.0,0.278
1232.0,0.2763
1233.0,0.2676
1234.0,0.2776
1235.0,0.2759
1236.0,0.2778
1237.0,0.2743
1238.0,0.2769
1239.0,0.2733
1240.0,0.2744
1241.0,0.2732
1242.0,0.2725
1243.0,0.2703
1244.0,0.2722
1245.0,0.2734
1246.0,0.2718
1247.0,0.2708
1248.0,0.2707
1249.0,0.2714
1250.0,0.2698
1251.0,0.2665
1252.0,0.2664
1253.0,0.2645
1254.0,0.262
1255.0,0.2662
1256.0,0.2592
1257.0,0.2578
1258.0,0.2623
1259.0,0.2535
1260.0,0.2547
1261.0,0.2413
1262.0,0.2346
1263.0,0.235
1264.0,0.218
1265.0,0.2335
1266.0,0.2253
1267.0,0.2289
1268.0,0.2177
1269.0,0.1397
1270.0,0.2282
1271.0,0.2404
1272.0,0.2411
1273.0,0.2386
1274.0,0.2393
1275.0,0.2426
1276.0,0.2447
1277.0,0.2462
1278.0,0.2505
1279.0,0.2483
1280.0,0.2451
1281.0,0.2337
1282.0,0.2249
1283.0,0.2423
1284.0,0.2482
1285.0,0.2498
1286.0,0.253
1287.0,0.2494
1288.0,0.2492
1289.0,0.2419
1290.0,0.247
1291.0,0.2503
1292.0,0.2362
1293.0,0.2457
1294.0,0.2441
1295.0,0.2431
1296.0,0.2328
1297.0,0.2207
1298.0,0.2365
1299.0,0.2459
1300.0,0.21
1301.0,0.2161
1302.0,0.2357
1303.0,0.207
1304.0,0.1782
1305.0,0.231
1306.0,0.2312
1307.0,0.1814
1308.0,0.2071
1309.0,0.2295
1310.0,0.1781
1311.0,0.1989
1312.0,0.1937
1313.0,0.1903
1314.0,0.1709
1315.0,0.169
1316.0,0.196
1317.0,0.1859
1318.0,0.2013
1319.0,0.1592
1320.0,0.1539
1321.0,0.1786
1322.0,0.1807
1323.0,0.1374
1324.0,0.1561
1325.0,0.1933
1326.0,0.1668
1327.0,0.1593
1328.0,0.1379
1329.0,0.1047
1330.0,0.1357
1331.0,0.08321
1332.0,0.08549
1333.0,0.1187
1334.0,0.09992
1335.0,0.1369
1336.0,0.1089
1337.0,0.09664
1338.0,0.1046
1339.0,0.1039
1340.0,0.1008
1341.0,0.09914
1342.0,0.1041
1343.0,0.07197
1344.0,0.04302
1345.0,0.06195
1346.0,0.03171
1347.0,0.0324
1348.0,0.002275
1349.0,0.007992
1350.0,0.008169
1351.0,0.002132
1352.0,0.0006228
1353.0,3.468e-05
1354.0,0.000113
1355.0,1.091e-06
1356.0,1.706e-05
1357.0,2.593e-05
1358.0,1.283e-06
1359.0,1.852e-07
1360.0,6.161e-07
1361.0,9.186e-10
1362.0,2.85e-12
1363.0,8.684e-07
1364.0,3.628e-07
1365.0,1.171e-12
1366.0,3.663e-06
1367.0,1.467e-06
1368.0,1.236e-14
1369.0,1.367e-07
1370.0,7.142e-08
1371.0,4.357e-09
1372.0,8.073e-07
1373.0,1.488e-05
1374.0,6.505e-05
1375.0,0.0001185
1376.0,0.0001014
1377.0,4.71e-05
1378.0,0.0004486
1379.0,1.984e-05
1380.0,2.969e-05
1381.0,8.065e-07
1382.0,7.401e-07
1383.0,1.17e-08
1384.0,1.582e-07
1385.0,6.571e-07
1386.0,6.862e-07
1387.0,7.006e-05
1388.0,1.389e-06
1389.0,0.0002223
1390.0,0.0001915
1391.0,0.0001295
1392.0,8.607e-06
1393.0,4.418e-05
1394.0,2.522e-05
1395.0,1.996e-07
1396.0,1.274e-09
1397.0,1.804e-05
1398.0,0.0005073
1399.0,0.0003214
1400.0,5.936e-10
1401.0,2.231e-09
1402.0,0.0008251
1403.0,0.001053
1404.0,0.000323
1405.0,1.021e-07
1406.0,0.0008623
1407.0,7.49e-05
1408.0,0.0007024
1409.0,0.0002464
1410.0,0.0001919
1411.0,0.0009233
1412.0,0.001221
1413.0,0.01189
1414.0,0.0001507
1415.0,7.383e-05
1416.0,0.01903
1417.0,0.00589
1418.0,0.006729
1419.0,0.00105
1420.0,0.004121
1421.0,0.004458
1422.0,0.02481
1423.0,0.004839
1424.0,0.009041
1425.0,0.01335
1426.0,0.01505
1427.0,0.02746
1428.0,0.002149
1429.0,0.02063
1430.0,0.03495
1431.0,0.03834
1432.0,0.001695
1433.0,0.02444
1434.0,0.01246
1435.0,0.01253
1436.0,0.02407
1437.0,0.01844
1438.0,0.00782
1439.0,0.03269
1440.0,0.02449
1441.0,0.0187
1442.0,0.02074
1443.0,0.026
1444.0,0.03601
1445.0,0.02819
1446.0,0.01268
1447.0,0.01999
1448.0,0.06772
