interpolation:linear
wavelength,value
280.0,7.937e-21
280.5,2.406e-19
281.0,1.256e-18
281.5,4.917e-19
282.0,1.468e-18
282.5,3.851e-18
283.0,1.237e-17
283.5,2.018e-17
284.0,3.195e-16
284.5,9.106e-16
285.0,1.818e-15
285.5,9.481e-15
286.0,3.854e-14
286.5,1.731e-13
287.0,4.934e-13
287.5,1.873e-12
288.0,4.905e-12
288.5,1.738e-11
289.0,5.205e-11
289.5,1.729e-10
290.0,5.116e-10
290.5,1.094e-09
291.0,2.469e-09
291.5,7.694e-09
292.0,1.872e-08
292.5,2.937e-08
293.0,7.29e-08
293.5,2.183e-07
294.0,3.982e-07
294.5,5.276e-07
295.0,1.043e-06
295.5,2.852e-06
296.0,5.667e-06
296.5,8.174e-06
297.0,1.135e-05
297.5,3.169e-05
298.0,5.174e-05
298.5,5.355e-05
299.0,0.0001215
299.5,0.0002121
300.0,0.0002405
300.5,0.0003601
301.0,0.0006909
301.5,0.001172
302.0,0.001041
302.5,0.00202
303.0,0.00359
303.5,0.004488
304.0,0.004192
304.5,0.006156
305.0,0.009116
305.5,0.01028
306.0,0.009895
306.5,0.0122
307.0,0.01769
307.5,0.02301
308.0,0.02422
308.5,0.02829
309.0,0.02764
309.5,0.03114
310.0,0.03105
310.5,0.05012
311.0,0.06253
311.5,0.0602
312.0,0.05938
312.5,0.07161
313.0,0.0773
313.5,0.07541
314.0,0.09324
314.5,0.08144
315.0,0.1067
315.5,0.08997
316.0,0.07761
316.5,0.1103
317.0,0.1369
317.5,0.143
318.0,0.1107
318.5,0.1355
319.0,0.1596
319.5,0.1317
320.0,0.1594
320.5,0.1966
321.0,0.1727
321.5,0.1654
322.0,0.1788
322.5,0.1555
323.0,0.1534
323.5,0.1868
324.0,0.2178
324.5,0.222
325.0,0.1927
325.5,0.246
326.0,0.3001
326.5,0.299
327.0,0.2986
327.5,0.2891
328.0,0.2593
328.5,0.2702
329.0,0.3213
329.5,0.364
330.0,0.3679
330.5,0.296
331.0,0.3022
331.5,0.3059
332.0,0.3286
332.5,0.3242
333.0,0.3238
333.5,0.2944
334.0,0.3018
334.5,0.3466
335.0,0.3248
335.5,0.3794
336.0,0.2625
336.5,0.3079
337.0,0.2532
337.5,0.3151
338.0,0.3065
338.5,0.3537
339.0,0.3501
339.5,0.3368
340.0,0.396
340.5,0.3568
341.0,0.348
341.5,0.3195
342.0,0.3819
342.5,0.3573
343.0,0.393
343.5,0.3702
344.0,0.2736
344.5,0.2764
345.0,0.3657
345.5,0.3734
346.0,0.3174
346.5,0.3594
347.0,0.3859
347.5,0.3121
348.0,0.3558
348.5,0.3556
349.0,0.3299
349.5,0.3267
350.0,0.4042
350.5,0.4264
351.0,0.3809
351.5,0.3703
352.0,0.3978
352.5,0.3104
353.0,0.391
353.5,0.4182
354.0,0.4341
354.5,0.4403
355.0,0.4389
355.5,0.3966
356.0,0.415
356.5,0.3544
357.0,0.2928
357.5,0.3585
358.0,0.2842
358.5,0.2429
359.0,0.3398
359.5,0.433
360.0,0.4591
360.5,0.367
361.0,0.3346
361.5,0.3853
362.0,0.3333
362.5,0.4613
363.0,0.4144
363.5,0.3818
364.0,0.467
364.5,0.3992
365.0,0.4066
365.5,0.5104
366.0,0.5409
366.5,0.5083
367.0,0.4951
367.5,0.5139
368.0,0.4497
368.5,0.4539
369.0,0.4902
369.5,0.5226
370.0,0.5572
370.5,0.4325
371.0,0.4622
371.5,0.5784
372.0,0.3839
372.5,0.4604
373.0,0.4684
373.5,0.3048
374.0,0.443
374.5,0.3669
375.0,0.3568
375.5,0.5327
376.0,0.4416
376.5,0.4577
377.0,0.4847
377.5,0.5672
378.0,0.6149
378.5,0.5813
379.0,0.4797
379.5,0.4383
380.0,0.4557
380.5,0.5521
381.0,0.5533
381.5,0.4387
382.0,0.3897
382.5,0.3323
383.0,0.3077
383.5,0.2964
384.0,0.327
384.5,0.481
385.0,0.4771
385.5,0.4444
386.0,0.3807
386.5,0.5001
387.0,0.4156
387.5,0.4669
388.0,0.4312
388.5,0.4263
389.0,0.4602
389.5,0.5575
390.0,0.5596
390.5,0.5151
391.0,0.6064
391.5,0.6186
392.0,0.5211
392.5,0.4666
393.0,0.2597
393.5,0.1888
394.0,0.3842
394.5,0.4885
395.0,0.5962
395.5,0.6057
396.0,0.5252
396.5,0.3071
397.0,0.2305
397.5,0.4688
398.0,0.6566
398.5,0.6788
399.0,0.7352
399.5,0.7328
400.0,0.7611
401.0,0.7723
402.0,0.815
403.0,0.7744
404.0,0.7627
405.0,0.7627
406.0,0.7505
407.0,0.7386
408.0,0.7675
409.0,0.8217
410.0,0.7181
411.0,0.778
412.0,0.8358
413.0,0.8152
414.0,0.8253
415.0,0.8276
416.0,0.8423
417.0,0.8217
418.0,0.8067
419.0,0.8174
420.0,0.8139
421.0,0.8516
422.0,0.8096
423.0,0.7909
424.0,0.8367
425.0,0.8353
426.0,0.8137
427.0,0.7986
428.0,0.7781
429.0,0.7371
430.0,0.6451
431.0,0.6395
432.0,0.8258
433.0,0.8305
434.0,0.7712
435.0,0.8055
436.0,0.9077
437.0,0.8956
438.0,0.8156
439.0,0.8437
440.0,0.8706
441.0,0.9022
442.0,0.9677
443.0,0.9426
444.0,0.9631
445.0,0.9424
446.0,0.8994
447.0,0.9724
448.0,0.9876
449.0,0.9916
450.0,1.019
451.0,1.057
452.0,1.019
453.0,0.9582
454.0,1.0
455.0,1.007
456.0,1.03
457.0,1.048
458.0,1.012
459.0,1.007
460.0,1.01
461.0,1.033
462.0,1.041
463.0,1.034
464.0,1.017
465.0,1.004
466.0,1.014
467.0,0.9951
468.0,1.007
469.0,1.012
470.0,0.9798
471.0,0.9786
472.0,1.031
473.0,1.018
474.0,1.019
475.0,1.028
476.0,0.9975
477.0,1.0
478.0,1.028
479.0,1.022
480.0,1.024
481.0,1.043
482.0,1.048
483.0,1.035
484.0,1.014
485.0,0.9663
486.0,0.8447
487.0,0.8853
488.0,0.9712
489.0,0.9743
490.0,1.025
491.0,1.007
492.0,0.9513
493.0,0.9824
494.0,0.9923
495.0,1.001
496.0,1.007
497.0,1.023
498.0,0.9747
499.0,0.9872
500.0,0.9585
501.0,0.9409
502.0,0.9278
503.0,0.9657
504.0,0.9413
505.0,0.9749
506.0,1.006
507.0,0.9576
508.0,0.9277
509.0,0.9537
510.0,0.9486
511.0,0.974
512.0,0.9846
513.0,0.9319
514.0,0.9255
515.0,0.9163
516.0,0.914
517.0,0.8122
518.0,0.8539
519.0,0.8956
520.0,0.9282
521.0,0.937
522.0,0.9379
523.0,0.921
524.0,0.954
525.0,0.9653
526.0,0.9221
527.0,0.869
528.0,0.9191
529.0,0.9688
530.0,0.9549
531.0,0.9691
532.0,0.9358
533.0,0.9084
534.0,0.9352
535.0,0.9556
536.0,0.9644
537.0,0.9263
538.0,0.9427
539.0,0.9347
540.0,0.8962
541.0,0.9022
542.0,0.9305
543.0,0.9206
544.0,0.9367
545.0,0.9338
546.0,0.9379
547.0,0.9374
548.0,0.9262
549.0,0.929
550.0,0.94
551.0,0.9286
552.0,0.9351
553.0,0.9184
554.0,0.9403
555.0,0.9422
556.0,0.93
557.0,0.9011
558.0,0.8943
559.0,0.8777
560.0,0.8887
561.0,0.9002
562.0,0.8937
563.0,0.9182
564.0,0.8932
565.0,0.8855
566.0,0.8725
567.0,0.8891
568.0,0.8812
569.0,0.8604
570.0,0.8602
571.0,0.8549
572.0,0.8756
573.0,0.8849
574.0,0.8821
575.0,0.8657
576.0,0.8578
577.0,0.8671
578.0,0.8541
579.0,0.8574
580.0,0.8736
581.0,0.878
582.0,0.8946
583.0,0.8967
584.0,0.9045
585.0,0.8824
586.0,0.8642
587.0,0.8832
588.0,0.8619
589.0,0.7639
590.0,0.7989
591.0,0.8452
592.0,0.8346
593.0,0.8468
594.0,0.841
595.0,0.8203
596.0,0.8524
597.0,0.8433
598.0,0.841
599.0,0.8417
600.0,0.8429
601.0,0.836
602.0,0.8303
603.0,0.844
604.0,0.858
605.0,0.8535
606.0,0.85
607.0,0.8584
608.0,0.8489
609.0,0.8503
610.0,0.8442
611.0,0.8486
612.0,0.8461
613.0,0.8355
614.0,0.824
615.0,0.842
616.0,0.8142
617.0,0.8125
618.0,0.8438
619.0,0.8352
620.0,0.8405
621.0,0.8414
622.0,0.8315
623.0,0.8189
624.0,0.8048
625.0,0.803
626.0,0.8149
627.0,0.8241
628.0,0.7702
629.0,0.8048
630.0,0.7863
631.0,0.8038
632.0,0.7942
633.0,0.8182
634.0,0.8102
635.0,0.8228
636.0,0.8119
637.0,0.8252
638.0,0.8331
639.0,0.8237
640.0,0.8157
641.0,0.8152
642.0,0.8114
643.0,0.8223
644.0,0.8197
645.0,0.821
646.0,0.8019
647.0,0.7925
648.0,0.7933
649.0,0.7779
650.0,0.7815
651.0,0.8154
652.0,0.7816
653.0,0.8045
654.0,0.7956
655.0,0.766
656.0,0.6789
657.0,0.6971
658.0,0.7812
659.0,0.7868
660.0,0.79
661.0,0.7956
662.0,0.7972
663.0,0.7815
664.0,0.7907
665.0,0.7913
666.0,0.7919
667.0,0.7911
668.0,0.7914
669.0,0.8037
670.0,0.8002
671.0,0.8
672.0,0.7931
673.0,0.8051
674.0,0.8021
675.0,0.7948
676.0,0.8002
677.0,0.7923
678.0,0.7945
679.0,0.7817
680.0,0.7879
681.0,0.7827
682.0,0.7817
683.0,0.7802
684.0,0.7763
685.0,0.783
686.0,0.7783
687.0,0.5188
688.0,0.6071
689.0,0.6093
690.0,0.6387
691.0,0.6718
692.0,0.696
693.0,0.6903
694.0,0.6846
695.0,0.7127
696.0,0.7136
697.0,0.757
698.0,0.7453
699.0,0.7277
700.0,0.7189
701.0,0.7116
702.0,0.7165
703.0,0.7178
704.0,0.7406
705.0,0.7418
706.0,0.7411
707.0,0.7416
708.0,0.7432
709.0,0.7442
710.0,0.7442
711.0,0.7432
712.0,0.7409
713.0,0.7335
714.0,0.7362
715.0,0.7131
716.0,0.7135
717.0,0.6196
718.0,0.5692
719.0,0.5214
720.0,0.5463
721.0,0.6026
722.0,0.6889
723.0,0.6416
724.0,0.5783
725.0,0.5691
726.0,0.5958
727.0,0.6041
728.0,0.5678
729.0,0.5888
730.0,0.623
731.0,0.5961
732.0,0.6374
733.0,0.6744
734.0,0.6904
735.0,0.6761
736.0,0.6752
737.0,0.6779
738.0,0.6882
739.0,0.6746
740.0,0.6922
741.0,0.6853
742.0,0.6859
743.0,0.7033
744.0,0.7013
745.0,0.7014
746.0,0.7046
747.0,0.7062
748.0,0.7047
749.0,0.6967
750.0,0.6962
751.0,0.6892
752.0,0.6921
753.0,0.6956
754.0,0.6972
755.0,0.6933
756.0,0.693
757.0,0.694
758.0,0.6853
759.0,0.6715
760.0,0.1126
761.0,0.05912
762.0,0.3442
763.0,0.172
764.0,0.2586
765.0,0.3443
766.0,0.4225
767.0,0.5331
768.0,0.6151
769.0,0.628
770.0,0.6494
771.0,0.6546
772.0,0.656
773.0,0.6606
774.0,0.6574
775.0,0.6524
776.0,0.6603
777.0,0.6516
778.0,0.6477
779.0,0.6482
780.0,0.6446
781.0,0.6452
782.0,0.6493
783.0,0.638
784.0,0.641
785.0,0.6363
786.0,0.6433
787.0,0.6321
788.0,0.6242
789.0,0.624
790.0,0.6074
791.0,0.6126
792.0,0.6081
793.0,0.5983
794.0,0.6085
795.0,0.6188
796.0,0.5998
797.0,0.6006
798.0,0.618
799.0,0.6141
800.0,0.6035
801.0,0.6016
802.0,0.5999
803.0,0.5953
804.0,0.5961
805.0,0.5942
806.0,0.6109
807.0,0.6035
808.0,0.6041
809.0,0.5927
810.0,0.5879
811.0,0.5887
812.0,0.5718
813.0,0.56
814.0,0.4927
815.0,0.4897
816.0,0.4558
817.0,0.4641
818.0,0.4468
819.0,0.4994
820.0,0.4704
821.0,0.5498
822.0,0.534
823.0,0.3633
824.0,0.5185
825.0,0.5402
826.0,0.5197
827.0,0.5485
828.0,0.465
829.0,0.5166
830.0,0.5098
831.0,0.5116
832.0,0.4959
833.0,0.5276
834.0,0.5089
835.0,0.5591
836.0,0.5352
837.0,0.5607
838.0,0.5432
839.0,0.5523
840.0,0.5644
841.0,0.5563
842.0,0.5576
843.0,0.5573
844.0,0.5495
845.0,0.5681
846.0,0.5657
847.0,0.5552
848.0,0.5517
849.0,0.536
850.0,0.5135
851.0,0.5437
852.0,0.5399
853.0,0.5197
854.0,0.4487
855.0,0.493
856.0,0.5387
857.0,0.5508
858.0,0.5467
859.0,0.5472
860.0,0.5482
861.0,0.5452
862.0,0.5538
863.0,0.5668
864.0,0.5385
865.0,0.5338
866.0,0.48
867.0,0.5009
868.0,0.5451
869.0,0.5338
870.0,0.549
871.0,0.5415
872.0,0.5396
873.0,0.5385
874.0,0.5321
875.0,0.5213
876.0,0.5267
877.0,0.5321
878.0,0.5378
879.0,0.5296
880.0,0.5182
881.0,0.5104
882.0,0.5214
883.0,0.5231
884.0,0.5207
885.0,0.5246
886.0,0.4999
887.0,0.5053
888.0,0.5127
889.0,0.5186
890.0,0.5141
891.0,0.5133
892.0,0.4983
893.0,0.4825
894.0,0.4651
895.0,0.439
896.0,0.4133
897.0,0.3544
898.0,0.3871
899.0,0.2936
900.0,0.3968
901.0,0.3077
902.0,0.3623
903.0,0.3655
904.0,0.4616
905.0,0.4455
906.0,0.4168
907.0,0.3375
908.0,0.3444
909.0,0.3736
910.0,0.3294
911.0,0.3517
912.0,0.3679
913.0,0.3342
914.0,0.3316
915.0,0.3595
916.0,0.304
917.0,0.3869
918.0,0.3117
919.0,0.3942
920.0,0.3989
921.0,0.4149
922.0,0.3702
923.0,0.4008
924.0,0.3793
925.0,0.371
926.0,0.375
927.0,0.4206
928.0,0.3062
929.0,0.2789
930.0,0.218
931.0,0.2067
932.0,0.1476
933.0,0.1193
934.0,0.06395
935.0,0.1226
936.0,0.07563
937.0,0.07655
938.0,0.09451
939.0,0.2002
940.0,0.2418
941.0,0.1812
942.0,0.2107
943.0,0.1375
944.0,0.1458
945.0,0.1871
946.0,0.09382
947.0,0.1876
948.0,0.1376
949.0,0.2525
950.0,0.06797
951.0,0.2489
952.0,0.1318
953.0,0.1715
954.0,0.2117
955.0,0.1736
956.0,0.1694
957.0,0.1319
958.0,0.242
959.0,0.1907
960.0,0.2137
961.0,0.2412
962.0,0.228
963.0,0.264
964.0,0.2414
965.0,0.2631
966.0,0.2628
967.0,0.2616
968.0,0.3547
969.0,0.3701
970.0,0.3394
971.0,0.3902
972.0,0.3729
973.0,0.323
974.0,0.3063
975.0,0.3186
976.0,0.3016
977.0,0.3451
978.0,0.327
979.0,0.3431
980.0,0.3222
981.0,0.388
982.0,0.3704
983.0,0.3552
984.0,0.4005
985.0,0.369
986.0,0.408
987.0,0.3995
988.0,0.3988
989.0,0.407
990.0,0.3964
991.0,0.4082
992.0,0.4106
993.0,0.401
994.0,0.4105
995.0,0.4101
996.0,0.4082
997.0,0.4088
998.0,0.4069
999.0,0.4054
1000.0,0.4024
1001.0,0.4076
1002.0,0.3959
1003.0,0.4004
1004.0,0.3904
1005.0,0.3763
1006.0,0.3909
1007.0,0.3993
1008.0,0.397
1009.0,0.3948
1010.0,0.393
1011.0,0.3972
1012.0,0.3937
1013.0,0.3963
1014.0,0.3935
1015.0,0.3909
1016.0,0.3891
1017.0,0.3901
1018.0,0.3887
1019.0,0.3802
1020.0,0.3866
1021.0,0.3861
1022.0,0.3831
1023.0,0.3871
1024.0,0.3819
1025.0,0.3869
1026.0,0.3852
1027.0,0.3843
1028.0,0.3835
1029.0,0.379
1030.0,0.3816
1031.0,0.3801
1032.0,0.379
1033.0,0.3733
1034.0,0.3733
1035.0,0.3745
1036.0,0.3764
1037.0,0.3703
1038.0,0.3719
1039.0,0.3717
1040.0,0.3702
1041.0,0.3716
1042.0,0.369
1043.0,0.3678
1044.0,0.3691
1045.0,0.3641
1046.0,0.3601
1047.0,0.3633
1048.0,0.3653
1049.0,0.3639
1050.0,0.3623
1051.0,0.3617
1052.0,0.3602
1053.0,0.3573
1054.0,0.3581
1055.0,0.3583
1056.0,0.357
1057.0,0.3558
1058.0,0.3471
1059.0,0.3474
1060.0,0.3469
1061.0,0.3464
1062.0,0.3482
1063.0,0.3447
1064.0,0.3488
1065.0,0.3463
1066.0,0.3395
1067.0,0.3438
1068.0,0.3363
1069.0,0.3259
1070.0,0.3369
1071.0,0.3424
1072.0,0.3383
1073.0,0.3334
1074.0,0.3422
1075.0,0.3245
1076.0,0.3419
1077.0,0.3355
1078.0,0.329
1079.0,0.3365
1080.0,0.3303
1081.0,0.3195
1082.0,0.3251
1083.0,0.3262
1084.0,0.3186
1085.0,0.3311
1086.0,0.3014
1087.0,0.3116
1088.0,0.3257
1089.0,0.3153
1090.0,0.308
1091.0,0.3245
1092.0,0.3238
1093.0,0.2731
1094.0,0.2961
1095.0,0.2847
1096.0,0.2722
1097.0,0.3163
1098.0,0.2677
1099.0,0.2795
1100.0,0.2592
1101.0,0.2627
1102.0,0.2505
1103.0,0.2477
1104.0,0.2481
1105.0,0.273
1106.0,0.2063
1107.0,0.2588
1108.0,0.2179
1109.0,0.2186
1110.0,0.2563
1111.0,0.1719
1112.0,0.217
1113.0,0.1361
1114.0,0.1523
1115.0,0.1261
1116.0,0.09944
1117.0,0.03515
1118.0,0.1086
1119.0,0.05277
1120.0,0.06635
1121.0,0.08875
1122.0,0.03636
1123.0,0.06
1124.0,0.05063
1125.0,0.06633
1126.0,0.02211
1127.0,0.07492
1128.0,0.04374
1129.0,0.04656
1130.0,0.03024
1131.0,0.1447
1132.0,0.113
1133.0,0.0702
1134.0,0.01714
1135.0,0.00647
1136.0,0.05806
1137.0,0.1417
1138.0,0.09951
1139.0,0.1512
1140.0,0.1252
1141.0,0.09459
1142.0,0.1094
1143.0,0.1565
1144.0,0.05332
1145.0,0.06774
1146.0,0.07304
1147.0,0.02467
1148.0,0.1353
1149.0,0.1072
1150.0,0.05749
1151.0,0.09873
1152.0,0.1225
1153.0,0.1201
1154.0,0.06551
1155.0,0.1576
1156.0,0.1414
1157.0,0.1595
1158.0,0.1578
1159.0,0.1708
1160.0,0.1453
1161.0,0.1804
1162.0,0.1812
1163.0,0.2467
1164.0,0.2109
1165.0,0.1983
1166.0,0.1974
1167.0,0.2153
1168.0,0.2175
1169.0,0.2229
1170.0,0.2428
1171.0,0.2367
1172.0,0.2413
1173.0,0.2423
1174.0,0.1719
1175.0,0.2369
1176.0,0.2609
1177.0,0.2502
1178.0,0.1871
1179.0,0.2631
1180.0,0.2343
1181.0,0.2418
1182.0,0.166
1183.0,0.2382
1184.0,0.223
1185.0,0.2149
1186.0,0.2555
1187.0,0.2432
1188.0,0.1688
1189.0,0.2265
1190.0,0.2498
1191.0,0.2368
1192.0,0.2533
1193.0,0.2426
1194.0,0.2501
1195.0,0.2363
1196.0,0.2275
1197.0,0.2504
1198.0,0.2289
1199.0,0.1942
1200.0,0.2395
1201.0,0.2309
1202.0,0.2296
1203.0,0.2276
1204.0,0.1989
1205.0,0.2351
1206.0,0.2599
1207.0,0.229
1208.0,0.2255
1209.0,0.2302
1210.0,0.2399
1211.0,0.2283
1212.0,0.2254
1213.0,0.2513
1214.0,0.2309
1215.0,0.2265
1216.0,0.2505
1217.0,0.2438
1218.0,0.2485
1219.0,0.2454
1220.0,0.2487
1221.0,0.2512
1222.0,0.2447
1223.0,0.2424
1224.0,0.2408
1225.0,0.2496
1226.0,0.2513
1227.0,0.2317
1228.0,0.2526
1229.0,0.2514
1230.0,0.247
1231.0,0.2542
1232.0,0.2526
1233.0,0.2438
1234.0,0.254
1235.0,0.2523
1236.0,0.2542
1237.0,0.2506
1238.0,0.2533
1239.0,0.2501
1240.0,0.251
1241.0,0.2498
1242.0,0.2493
1243.0,0.2473
1244.0,0.249
1245.0,0.2501
1246.0,0.2486
1247.0,0.2477
1248.0,0.2475
1249.0,0.2483
1250.0,0.2468
1251.0,0.2436
1252.0,0.2436
1253.0,0.2416
1254.0,0.2392
1255.0,0.2434
1256.0,0.2365
1257.0,0.2352
1258.0,0.2396
1259.0,0.2308
1260.0,0.232
1261.0,0.2189
1262.0,0.2122
1263.0,0.2126
1264.0,0.196
1265.0,0.2112
1266.0,0.2031
1267.0,0.2068
1268.0,0.196
1269.0,0.1207
1270.0,0.206
1271.0,0.2181
1272.0,0.2189
1273.0,0.2165
1274.0,0.2172
1275.0,0.2204
1276.0,0.2226
1277.0,0.2241
1278.0,0.2285
1279.0,0.2264
1280.0,0.2236
1281.0,0.2133
1282.0,0.2056
1283.0,0.2214
1284.0,0.2267
1285.0,0.2282
1286.0,0.2313
1287.0,0.2277
1288.0,0.2277
1289.0,0.2204
1290.0,0.2257
1291.0,0.2288
1292.0,0.2148
1293.0,0.2243
1294.0,0.2228
1295.0,0.2216
1296.0,0.2115
1297.0,0.1999
1298.0,0.2154
1299.0,0.2246
1300.0,0.1898
1301.0,0.1957
1302.0,0.2147
1303.0,0.1874
1304.0,0.1594
1305.0,0.2103
1306.0,0.2103
1307.0,0.163
1308.0,0.1877
1309.0,0.2086
1310.0,0.1599
1311.0,0.1799
1312.0,0.1749
1313.0,0.1715
1314.0,0.1534
1315.0,0.1513
1316.0,0.177
1317.0,0.1676
1318.0,0.1823
1319.0,0.1419
1320.0,0.1377
1321.0,0.1605
1322.0,0.162
1323.0,0.1214
1324.0,0.1393
1325.0,0.1744
1326.0,0.1494
1327.0,0.1424
1328.0,0.1226
1329.0,0.09152
1330.0,0.1194
1331.0,0.07138
1332.0,0.07395
1333.0,0.1031
1334.0,0.08768
1335.0,0.1209
1336.0,0.09527
1337.0,0.08404
1338.0,0.09095
1339.0,0.09065
1340.0,0.08837
1341.0,0.08582
1342.0,0.09019
1343.0,0.06008
1344.0,0.03604
1345.0,0.05203
1346.0,0.0252
1347.0,0.02551
1348.0,0.001568
1349.0,0.005722
1350.0,0.00601
1351.0,0.001392
1352.0,0.000357
1353.0,1.728e-05
1354.0,6.171e-05
1355.0,4.46e-07
1356.0,8.414e-06
1357.0,1.284e-05
1358.0,5.307e-07
1359.0,6.164e-08
1360.0,2.359e-07
1361.0,2.216e-10
1362.0,5.643e-13
1363.0,3.115e-07
1364.0,1.286e-07
1365.0,1.803e-13
1366.0,1.393e-06
1367.0,5.793e-07
1368.0,1.16e-15
1369.0,4.787e-08
1370.0,2.282e-08
1371.0,1.243e-09
1372.0,3.19e-07
1373.0,6.821e-06
1374.0,3.298e-05
1375.0,5.984e-05
1376.0,5.566e-05
1377.0,2.528e-05
1378.0,0.000252
1379.0,1.061e-05
1380.0,1.493e-05
1381.0,3.813e-07
1382.0,2.849e-07
1383.0,4.142e-09
1384.0,5.339e-08
1385.0,2.805e-07
1386.0,2.478e-07
1387.0,3.343e-05
1388.0,6.599e-07
1389.0,0.0001186
1390.0,0.000102
1391.0,6.747e-05
1392.0,4.333e-06
1393.0,2.351e-05
1394.0,1.14e-05
1395.0,8.021e-08
1396.0,3.272e-10
1397.0,9.218e-06
1398.0,0.0002819
1399.0,0.000179
1400.0,1.35e-10
1401.0,5.989e-10
1402.0,0.0005281
1403.0,0.0006566
1404.0,0.0001991
1405.0,3.791e-08
1406.0,0.0005086
1407.0,4.557e-05
1408.0,0.0004175
1409.0,0.0001354
1410.0,0.0001109
1411.0,0.0005787
1412.0,0.0007944
1413.0,0.008649
1414.0,8.795e-05
1415.0,4.153e-05
1416.0,0.0148
1417.0,0.004265
1418.0,0.004819
1419.0,0.0007388
1420.0,0.002941
1421.0,0.003186
1422.0,0.01936
1423.0,0.003696
1424.0,0.006989
1425.0,0.01018
1426.0,0.01182
1427.0,0.02234
1428.0,0.001465
1429.0,0.0164
1430.0,0.02875
1431.0,0.03179
1432.0,0.001149
1433.0,0.01993
1434.0,0.009994
1435.0,0.009498
1436.0,0.01909
1437.0,0.01465
1438.0,0.005973
1439.0,0.02631
1440.0,0.01969
1441.0,0.0146
