interpolation:linear
wavelength,value
280.0,2.77e-21
280.5,8.696e-20
281.0,4.591e-19
281.5,3.395e-19
282.0,1.016e-18
282.5,2.69e-18
283.0,8.741e-18
283.5,1.433e-17
284.0,2.346e-16
284.5,6.782e-16
285.0,1.536e-15
285.5,7.443e-15
286.0,2.975e-14
286.5,1.311e-13
287.0,3.709e-13
287.5,1.402e-12
288.0,3.749e-12
288.5,1.243e-11
289.0,3.524e-11
289.5,1.115e-10
290.0,3.182e-10
290.5,6.614e-10
291.0,1.446e-09
291.5,4.222e-09
292.0,9.082e-09
292.5,1.365e-08
293.0,3.192e-08
293.5,8.735e-08
294.0,1.485e-07
294.5,1.921e-07
295.0,3.532e-07
295.5,9.196e-07
296.0,1.843e-06
296.5,2.688e-06
297.0,3.779e-06
297.5,1.079e-05
298.0,1.804e-05
298.5,1.906e-05
299.0,4.42e-05
299.5,8.068e-05
300.0,9.407e-05
300.5,0.0001453
301.0,0.0002954
301.5,0.0005346
302.0,0.0004944
302.5,0.0009773
303.0,0.001782
303.5,0.002266
304.0,0.002144
304.5,0.003255
305.0,0.005047
305.5,0.005858
306.0,0.0057
306.5,0.007157
307.0,0.0108
307.5,0.01459
308.0,0.01545
308.5,0.01839
309.0,0.01815
309.5,0.02093
310.0,0.02111
310.5,0.03425
311.0,0.04312
311.5,0.04169
312.0,0.04195
312.5,0.05125
313.0,0.05571
313.5,0.05402
314.0,0.06785
314.5,0.06053
315.0,0.07963
315.5,0.06645
316.0,0.05831
316.5,0.08406
317.0,0.1044
317.5,0.1085
318.0,0.08489
318.5,0.1059
319.0,0.126
319.5,0.1023
320.0,0.1236
320.5,0.1554
321.0,0.1389
321.5,0.1333
322.0,0.1415
322.5,0.1232
323.0,0.123
323.5,0.1515
324.0,0.1769
324.5,0.1795
325.0,0.1549
325.5,0.1997
326.0,0.2443
326.5,0.2449
327.0,0.2441
327.5,0.2357
328.0,0.2096
328.5,0.2207
329.0,0.2646
329.5,0.3005
330.0,0.3031
330.5,0.2425
331.0,0.247
331.5,0.2513
332.0,0.2717
332.5,0.2689
333.0,0.2682
333.5,0.2426
334.0,0.2486
334.5,0.2871
335.0,0.2699
335.5,0.3153
336.0,0.2182
336.5,0.2556
337.0,0.2097
337.5,0.2609
338.0,0.2549
338.5,0.2943
339.0,0.2914
339.5,0.2803
340.0,0.3295
340.5,0.2971
341.0,0.2898
341.5,0.2662
342.0,0.3182
342.5,0.2978
343.0,0.3276
343.5,0.3085
344.0,0.2281
344.5,0.2304
345.0,0.305
345.5,0.3115
346.0,0.2649
346.5,0.3
347.0,0.3221
347.5,0.2605
348.0,0.2971
348.5,0.2971
349.0,0.2757
349.5,0.2731
350.0,0.3378
350.5,0.3564
351.0,0.3185
351.5,0.3096
352.0,0.3326
352.5,0.2597
353.0,0.3272
353.5,0.35
354.0,0.3634
354.5,0.3686
355.0,0.3675
355.5,0.3321
356.0,0.3476
356.5,0.2968
357.0,0.2453
357.5,0.3004
358.0,0.2381
358.5,0.2035
359.0,0.2847
359.5,0.3629
360.0,0.3848
360.5,0.3077
361.0,0.2806
361.5,0.3232
362.0,0.2796
362.5,0.3872
363.0,0.3479
363.5,0.3206
364.0,0.3922
364.5,0.3353
365.0,0.3416
365.5,0.4289
366.0,0.4546
366.5,0.4273
367.0,0.4162
367.5,0.4321
368.0,0.3782
368.5,0.3818
369.0,0.4124
369.5,0.4397
370.0,0.4689
370.5,0.3641
371.0,0.3891
371.5,0.487
372.0,0.3233
372.5,0.3877
373.0,0.3946
373.5,0.2568
374.0,0.3733
374.5,0.3092
375.0,0.3007
375.5,0.449
376.0,0.3723
376.5,0.3859
377.0,0.4087
377.5,0.4783
378.0,0.5186
378.5,0.4903
379.0,0.4047
379.5,0.3697
380.0,0.3845
380.5,0.4659
381.0,0.467
381.5,0.3704
382.0,0.3291
382.5,0.2806
383.0,0.2599
383.5,0.2504
384.0,0.2763
384.5,0.4065
385.0,0.4033
385.5,0.3757
386.0,0.3219
386.5,0.423
387.0,0.3515
387.5,0.395
388.0,0.3648
388.5,0.3607
389.0,0.3894
389.5,0.4718
390.0,0.4737
390.5,0.436
391.0,0.5134
391.5,0.5238
392.0,0.4413
392.5,0.3952
393.0,0.22
393.5,0.16
394.0,0.3256
394.5,0.4141
395.0,0.5054
395.5,0.5135
396.0,0.4453
396.5,0.2604
397.0,0.1955
397.5,0.3977
398.0,0.557
398.5,0.5759
399.0,0.6238
399.5,0.6219
400.0,0.6459
401.0,0.6546
402.0,0.6911
403.0,0.6569
404.0,0.647
405.0,0.6472
406.0,0.637
407.0,0.6271
408.0,0.6518
409.0,0.6979
410.0,0.6101
411.0,0.6612
412.0,0.7105
413.0,0.6931
414.0,0.7019
415.0,0.7041
416.0,0.7168
417.0,0.6994
418.0,0.6867
419.0,0.696
420.0,0.6932
421.0,0.7254
422.0,0.6897
423.0,0.674
424.0,0.713
425.0,0.712
426.0,0.6939
427.0,0.6811
428.0,0.6637
429.0,0.629
430.0,0.5506
431.0,0.5458
432.0,0.7051
433.0,0.7092
434.0,0.6586
435.0,0.688
436.0,0.7755
437.0,0.7654
438.0,0.6972
439.0,0.721
440.0,0.7442
441.0,0.7715
442.0,0.8276
443.0,0.8061
444.0,0.8238
445.0,0.8061
446.0,0.7696
447.0,0.8323
448.0,0.8453
449.0,0.849
450.0,0.873
451.0,0.9055
452.0,0.8726
453.0,0.8209
454.0,0.8573
455.0,0.8627
456.0,0.8833
457.0,0.8981
458.0,0.8674
459.0,0.8631
460.0,0.8654
461.0,0.8854
462.0,0.8925
463.0,0.8864
464.0,0.8721
465.0,0.8613
466.0,0.8699
467.0,0.854
468.0,0.8641
469.0,0.8687
470.0,0.841
471.0,0.84
472.0,0.8851
473.0,0.8737
474.0,0.8748
475.0,0.8821
476.0,0.8556
477.0,0.8578
478.0,0.8817
479.0,0.8765
480.0,0.8784
481.0,0.895
482.0,0.8999
483.0,0.8893
484.0,0.8713
485.0,0.8303
486.0,0.726
487.0,0.761
488.0,0.8349
489.0,0.8374
490.0,0.8812
491.0,0.8661
492.0,0.818
493.0,0.8448
494.0,0.8533
495.0,0.8606
496.0,0.8659
497.0,0.8794
498.0,0.8382
499.0,0.8489
500.0,0.8241
501.0,0.8088
502.0,0.7972
503.0,0.8293
504.0,0.8074
505.0,0.837
506.0,0.8641
507.0,0.8223
508.0,0.7969
509.0,0.8195
510.0,0.8153
511.0,0.8374
512.0,0.8466
513.0,0.8013
514.0,0.7959
515.0,0.788
516.0,0.7861
517.0,0.6985
518.0,0.7344
519.0,0.7703
520.0,0.7982
521.0,0.8058
522.0,0.8064
523.0,0.7919
524.0,0.8201
525.0,0.8295
526.0,0.7923
527.0,0.7465
528.0,0.7893
529.0,0.8319
530.0,0.8199
531.0,0.832
532.0,0.8033
533.0,0.7798
534.0,0.803
535.0,0.8206
536.0,0.8282
537.0,0.7956
538.0,0.8097
539.0,0.8029
540.0,0.7698
541.0,0.7746
542.0,0.7987
543.0,0.7905
544.0,0.804
545.0,0.8016
546.0,0.8049
547.0,0.8047
548.0,0.7952
549.0,0.7977
550.0,0.8072
551.0,0.7974
552.0,0.803
553.0,0.7886
554.0,0.8074
555.0,0.809
556.0,0.7984
557.0,0.7735
558.0,0.7676
559.0,0.7531
560.0,0.7624
561.0,0.7721
562.0,0.7664
563.0,0.7871
564.0,0.7655
565.0,0.7588
566.0,0.7475
567.0,0.7615
568.0,0.7542
569.0,0.7353
570.0,0.7353
571.0,0.7311
572.0,0.748
573.0,0.7559
574.0,0.7534
575.0,0.7391
576.0,0.7323
577.0,0.7404
578.0,0.7296
579.0,0.7329
580.0,0.7475
581.0,0.7519
582.0,0.7666
583.0,0.7688
584.0,0.7758
585.0,0.757
586.0,0.7414
587.0,0.7574
588.0,0.7378
589.0,0.6513
590.0,0.6813
591.0,0.7223
592.0,0.7124
593.0,0.724
594.0,0.7185
595.0,0.7
596.0,0.7295
597.0,0.7211
598.0,0.7198
599.0,0.7207
600.0,0.7223
601.0,0.7167
602.0,0.7119
603.0,0.7239
604.0,0.736
605.0,0.7323
606.0,0.7295
607.0,0.7369
608.0,0.729
609.0,0.7304
610.0,0.7254
611.0,0.7293
612.0,0.7273
613.0,0.7182
614.0,0.7086
615.0,0.7242
616.0,0.7005
617.0,0.6992
618.0,0.7262
619.0,0.7189
620.0,0.7234
621.0,0.724
622.0,0.7153
623.0,0.7043
624.0,0.6924
625.0,0.6908
626.0,0.701
627.0,0.7084
628.0,0.6563
629.0,0.6898
630.0,0.6737
631.0,0.6907
632.0,0.6828
633.0,0.7043
634.0,0.698
635.0,0.7092
636.0,0.7002
637.0,0.7119
638.0,0.7191
639.0,0.7113
640.0,0.7046
641.0,0.7044
642.0,0.7014
643.0,0.7108
644.0,0.7088
645.0,0.7098
646.0,0.6926
647.0,0.6829
648.0,0.6835
649.0,0.6701
650.0,0.6752
651.0,0.7049
652.0,0.6735
653.0,0.6956
654.0,0.688
655.0,0.6614
656.0,0.5869
657.0,0.6028
658.0,0.6761
659.0,0.6812
660.0,0.6842
661.0,0.689
662.0,0.6901
663.0,0.6766
664.0,0.6851
665.0,0.6861
666.0,0.6868
667.0,0.6863
668.0,0.6869
669.0,0.6976
670.0,0.6947
671.0,0.6946
672.0,0.6888
673.0,0.6992
674.0,0.6967
675.0,0.6904
676.0,0.6953
677.0,0.6884
678.0,0.6905
679.0,0.6794
680.0,0.6848
681.0,0.6804
682.0,0.6795
683.0,0.6782
684.0,0.6748
685.0,0.6807
686.0,0.6766
687.0,0.4263
688.0,0.5103
689.0,0.5125
690.0,0.5412
691.0,0.5738
692.0,0.598
693.0,0.5928
694.0,0.588
695.0,0.6152
696.0,0.6161
697.0,0.6573
698.0,0.647
699.0,0.6293
700.0,0.6216
701.0,0.6145
702.0,0.6196
703.0,0.6208
704.0,0.6421
705.0,0.643
706.0,0.643
707.0,0.6437
708.0,0.645
709.0,0.6468
710.0,0.6464
711.0,0.6458
712.0,0.6443
713.0,0.6374
714.0,0.6399
715.0,0.6188
716.0,0.6189
717.0,0.5284
718.0,0.4842
719.0,0.4428
720.0,0.4631
721.0,0.5163
722.0,0.5961
723.0,0.5521
724.0,0.4942
725.0,0.4851
726.0,0.5083
727.0,0.5176
728.0,0.4835
729.0,0.5046
730.0,0.5337
731.0,0.5098
732.0,0.5485
733.0,0.5836
734.0,0.5983
735.0,0.5855
736.0,0.5847
737.0,0.587
738.0,0.5981
739.0,0.5863
740.0,0.6022
741.0,0.5966
742.0,0.5976
743.0,0.6129
744.0,0.6114
745.0,0.6117
746.0,0.6145
747.0,0.6159
748.0,0.6147
749.0,0.6077
750.0,0.6073
751.0,0.6012
752.0,0.6038
753.0,0.6069
754.0,0.6082
755.0,0.6048
756.0,0.6045
757.0,0.6054
758.0,0.5978
759.0,0.5844
760.0,0.07681
761.0,0.03698
762.0,0.2742
763.0,0.1243
764.0,0.1978
765.0,0.2741
766.0,0.348
767.0,0.4511
768.0,0.5306
769.0,0.544
770.0,0.5651
771.0,0.5708
772.0,0.5724
773.0,0.5765
774.0,0.5737
775.0,0.5694
776.0,0.5764
777.0,0.5688
778.0,0.5654
779.0,0.5658
780.0,0.5627
781.0,0.5633
782.0,0.5668
783.0,0.557
784.0,0.5597
785.0,0.5555
786.0,0.5615
787.0,0.5507
788.0,0.5433
789.0,0.543
790.0,0.5271
791.0,0.5331
792.0,0.5294
793.0,0.5207
794.0,0.5311
795.0,0.5397
796.0,0.5211
797.0,0.5216
798.0,0.5388
799.0,0.535
800.0,0.5252
801.0,0.5231
802.0,0.5216
803.0,0.5174
804.0,0.5183
805.0,0.5173
806.0,0.5328
807.0,0.5261
808.0,0.5267
809.0,0.5161
810.0,0.5113
811.0,0.5109
812.0,0.495
813.0,0.4839
814.0,0.4214
815.0,0.419
816.0,0.3894
817.0,0.397
818.0,0.3811
819.0,0.4299
820.0,0.4034
821.0,0.4769
822.0,0.4624
823.0,0.3061
824.0,0.447
825.0,0.4685
826.0,0.449
827.0,0.4756
828.0,0.3982
829.0,0.4467
830.0,0.4403
831.0,0.442
832.0,0.4275
833.0,0.4573
834.0,0.4395
835.0,0.4864
836.0,0.4633
837.0,0.4879
838.0,0.4716
839.0,0.4808
840.0,0.4917
841.0,0.4842
842.0,0.486
843.0,0.4866
844.0,0.4793
845.0,0.4961
846.0,0.4941
847.0,0.4851
848.0,0.4818
849.0,0.4681
850.0,0.4485
851.0,0.4745
852.0,0.4713
853.0,0.454
854.0,0.3917
855.0,0.4307
856.0,0.4705
857.0,0.4813
858.0,0.4776
859.0,0.4782
860.0,0.4792
861.0,0.4765
862.0,0.4841
863.0,0.4955
864.0,0.4708
865.0,0.4667
866.0,0.4196
867.0,0.4379
868.0,0.4766
869.0,0.4667
870.0,0.48
871.0,0.4735
872.0,0.4718
873.0,0.4709
874.0,0.4653
875.0,0.4558
876.0,0.4605
877.0,0.4652
878.0,0.4702
879.0,0.463
880.0,0.4531
881.0,0.4461
882.0,0.4556
883.0,0.4573
884.0,0.4551
885.0,0.4585
886.0,0.4363
887.0,0.4415
888.0,0.4476
889.0,0.4534
890.0,0.4488
891.0,0.4484
892.0,0.4345
893.0,0.4198
894.0,0.4028
895.0,0.3778
896.0,0.3549
897.0,0.3014
898.0,0.3308
899.0,0.2474
900.0,0.3409
901.0,0.2594
902.0,0.31
903.0,0.3112
904.0,0.3998
905.0,0.3849
906.0,0.3593
907.0,0.2864
908.0,0.2929
909.0,0.3198
910.0,0.2783
911.0,0.2996
912.0,0.314
913.0,0.2822
914.0,0.2807
915.0,0.3043
916.0,0.2565
917.0,0.3303
918.0,0.2628
919.0,0.3377
920.0,0.344
921.0,0.358
922.0,0.3167
923.0,0.346
924.0,0.324
925.0,0.317
926.0,0.3202
927.0,0.3618
928.0,0.2558
929.0,0.2309
930.0,0.1773
931.0,0.1685
932.0,0.117
933.0,0.09298
934.0,0.04654
935.0,0.0969
936.0,0.05764
937.0,0.05815
938.0,0.07261
939.0,0.1632
940.0,0.1994
941.0,0.1464
942.0,0.172
943.0,0.1099
944.0,0.1188
945.0,0.1518
946.0,0.0729
947.0,0.1513
948.0,0.1106
949.0,0.2068
950.0,0.05108
951.0,0.2044
952.0,0.1042
953.0,0.1383
954.0,0.1738
955.0,0.1403
956.0,0.1391
957.0,0.1039
958.0,0.2027
959.0,0.1561
960.0,0.175
961.0,0.2003
962.0,0.1891
963.0,0.2213
964.0,0.2017
965.0,0.2207
966.0,0.22
967.0,0.2187
968.0,0.3054
969.0,0.3177
970.0,0.2903
971.0,0.3376
972.0,0.3219
973.0,0.2749
974.0,0.2602
975.0,0.2722
976.0,0.2555
977.0,0.2966
978.0,0.2793
979.0,0.2942
980.0,0.2757
981.0,0.3359
982.0,0.3192
983.0,0.3053
984.0,0.3484
985.0,0.318
986.0,0.3559
987.0,0.3473
988.0,0.3468
989.0,0.3557
990.0,0.3446
991.0,0.3566
992.0,0.3588
993.0,0.3492
994.0,0.3589
995.0,0.3587
996.0,0.3568
997.0,0.3575
998.0,0.3557
999.0,0.3545
1000.0,0.3516
1001.0,0.3564
1002.0,0.3451
1003.0,0.35
1004.0,0.3411
1005.0,0.3291
1006.0,0.3417
1007.0,0.3491
1008.0,0.3469
1009.0,0.3448
1010.0,0.3431
1011.0,0.3474
1012.0,0.344
1013.0,0.3466
1014.0,0.3442
1015.0,0.3419
1016.0,0.3403
1017.0,0.3411
1018.0,0.34
1019.0,0.3322
1020.0,0.3381
1021.0,0.3377
1022.0,0.3349
1023.0,0.3384
1024.0,0.3334
1025.0,0.3384
1026.0,0.3368
1027.0,0.336
1028.0,0.3353
1029.0,0.3313
1030.0,0.3338
1031.0,0.3323
1032.0,0.3314
1033.0,0.3264
1034.0,0.3265
1035.0,0.3275
1036.0,0.3291
1037.0,0.3238
1038.0,0.3252
1039.0,0.325
1040.0,0.3236
1041.0,0.3249
1042.0,0.3226
1043.0,0.3216
1044.0,0.3226
1045.0,0.3182
1046.0,0.3147
1047.0,0.3175
1048.0,0.3192
1049.0,0.318
1050.0,0.3165
1051.0,0.3159
1052.0,0.3146
1053.0,0.312
1054.0,0.3126
1055.0,0.3127
1056.0,0.3115
1057.0,0.3105
1058.0,0.3027
1059.0,0.303
1060.0,0.3025
1061.0,0.3021
1062.0,0.3035
1063.0,0.3005
1064.0,0.3041
1065.0,0.3016
1066.0,0.2959
1067.0,0.2996
1068.0,0.2929
1069.0,0.284
1070.0,0.2935
1071.0,0.2986
1072.0,0.2947
1073.0,0.2905
1074.0,0.2987
1075.0,0.2821
1076.0,0.2983
1077.0,0.2921
1078.0,0.2861
1079.0,0.2938
1080.0,0.2876
1081.0,0.2776
1082.0,0.2834
1083.0,0.2846
1084.0,0.2765
1085.0,0.2884
1086.0,0.2608
1087.0,0.2709
1088.0,0.2841
1089.0,0.2738
1090.0,0.2668
1091.0,0.2827
1092.0,0.2823
1093.0,0.235
1094.0,0.2578
1095.0,0.2453
1096.0,0.2336
1097.0,0.2758
1098.0,0.2294
1099.0,0.24
1100.0,0.2212
1101.0,0.2246
1102.0,0.2133
1103.0,0.2104
1104.0,0.2107
1105.0,0.2341
1106.0,0.1718
1107.0,0.2209
1108.0,0.1829
1109.0,0.1841
1110.0,0.2183
1111.0,0.1423
1112.0,0.183
1113.0,0.1107
1114.0,0.1242
1115.0,0.1027
1116.0,0.07858
1117.0,0.02543
1118.0,0.08658
1119.0,0.04006
1120.0,0.05015
1121.0,0.06826
1122.0,0.02628
1123.0,0.04545
1124.0,0.03832
1125.0,0.05071
1126.0,0.01528
1127.0,0.05742
1128.0,0.03171
1129.0,0.03398
1130.0,0.02151
1131.0,0.1155
1132.0,0.08937
1133.0,0.05304
1134.0,0.01171
1135.0,0.004504
1136.0,0.043
1137.0,0.1122
1138.0,0.07839
1139.0,0.1241
1140.0,0.1009
1141.0,0.07456
1142.0,0.08719
1143.0,0.1268
1144.0,0.04092
1145.0,0.05122
1146.0,0.05519
1147.0,0.017
1148.0,0.1096
1149.0,0.08537
1150.0,0.04447
1151.0,0.07775
1152.0,0.09823
1153.0,0.09767
1154.0,0.04942
1155.0,0.1294
1156.0,0.1151
1157.0,0.1316
1158.0,0.1301
1159.0,0.1421
1160.0,0.1197
1161.0,0.1513
1162.0,0.1518
1163.0,0.2115
1164.0,0.179
1165.0,0.1666
1166.0,0.1672
1167.0,0.1833
1168.0,0.1848
1169.0,0.1899
1170.0,0.2083
1171.0,0.2029
1172.0,0.2077
1173.0,0.2079
1174.0,0.1439
1175.0,0.204
1176.0,0.2266
1177.0,0.216
1178.0,0.1588
1179.0,0.2285
1180.0,0.2014
1181.0,0.208
1182.0,0.1398
1183.0,0.2054
1184.0,0.1912
1185.0,0.1834
1186.0,0.2211
1187.0,0.2095
1188.0,0.1417
1189.0,0.195
1190.0,0.2162
1191.0,0.2032
1192.0,0.2195
1193.0,0.2096
1194.0,0.2165
1195.0,0.2034
1196.0,0.195
1197.0,0.2173
1198.0,0.198
1199.0,0.1653
1200.0,0.2069
1201.0,0.1985
1202.0,0.1981
1203.0,0.1961
1204.0,0.17
1205.0,0.2036
1206.0,0.2264
1207.0,0.1972
1208.0,0.195
1209.0,0.1992
1210.0,0.2082
1211.0,0.1972
1212.0,0.1934
1213.0,0.2183
1214.0,0.1986
1215.0,0.1946
1216.0,0.2177
1217.0,0.2114
1218.0,0.2159
1219.0,0.2129
1220.0,0.2161
1221.0,0.2186
1222.0,0.2127
1223.0,0.2104
1224.0,0.2086
1225.0,0.2172
1226.0,0.219
1227.0,0.2006
1228.0,0.2204
1229.0,0.219
1230.0,0.215
1231.0,0.2221
1232.0,0.2207
1233.0,0.2119
1234.0,0.2222
1235.0,0.2206
1236.0,0.2223
1237.0,0.2187
1238.0,0.2216
1239.0,0.2187
1240.0,0.2196
1241.0,0.2183
1242.0,0.2181
1243.0,0.2163
1244.0,0.2178
1245.0,0.2187
1246.0,0.2175
1247.0,0.2166
1248.0,0.2163
1249.0,0.2171
1250.0,0.2157
1251.0,0.2127
1252.0,0.213
1253.0,0.2108
1254.0,0.2084
1255.0,0.2126
1256.0,0.2059
1257.0,0.2046
1258.0,0.2091
1259.0,0.2003
1260.0,0.2015
1261.0,0.1886
1262.0,0.1821
1263.0,0.1824
1264.0,0.1665
1265.0,0.1813
1266.0,0.1734
1267.0,0.1772
1268.0,0.1668
1269.0,0.09579
1270.0,0.1762
1271.0,0.1882
1272.0,0.189
1273.0,0.1868
1274.0,0.1876
1275.0,0.1906
1276.0,0.1928
1277.0,0.1944
1278.0,0.1988
1279.0,0.1969
1280.0,0.1945
1281.0,0.1859
1282.0,0.1796
1283.0,0.1933
1284.0,0.1978
1285.0,0.1992
1286.0,0.2021
1287.0,0.1985
1288.0,0.1986
1289.0,0.1914
1290.0,0.1969
1291.0,0.1999
1292.0,0.186
1293.0,0.1956
1294.0,0.1941
1295.0,0.1926
1296.0,0.1828
1297.0,0.1721
1298.0,0.187
1299.0,0.196
1300.0,0.1629
1301.0,0.1685
1302.0,0.1864
1303.0,0.1611
1304.0,0.1346
1305.0,0.1824
1306.0,0.1822
1307.0,0.1385
1308.0,0.1618
1309.0,0.1804
1310.0,0.1357
1311.0,0.1545
1312.0,0.1498
1313.0,0.1464
1314.0,0.1301
1315.0,0.1277
1316.0,0.1515
1317.0,0.1432
1318.0,0.1568
1319.0,0.1191
1320.0,0.1162
1321.0,0.1365
1322.0,0.1373
1323.0,0.1004
1324.0,0.117
1325.0,0.1491
1326.0,0.1262
1327.0,0.1199
1328.0,0.1024
1329.0,0.07437
1330.0,0.0981
1331.0,0.05626
1332.0,0.05907
1333.0,0.08285
1334.0,0.07179
1335.0,0.09995
1336.0,0.07745
1337.0,0.06776
1338.0,0.07328
1339.0,0.07338
1340.0,0.07222
1341.0,0.06856
1342.0,0.07221
1343.0,0.04522
1344.0,0.02737
1345.0,0.03952
1346.0,0.01746
1347.0,0.01738
1348.0,0.0008674
1349.0,0.003348
1350.0,0.00366
1351.0,0.0007003
1352.0,0.0001434
1353.0,5.617e-06
1354.0,2.329e-05
1355.0,1.058e-07
1356.0,2.703e-06
1357.0,4.135e-06
1358.0,1.283e-07
1359.0,1.038e-08
1360.0,5.015e-08
1361.0,2.256e-11
1362.0,4.324e-14
1363.0,5.785e-08
1364.0,2.399e-08
1365.0,9.262e-15
1366.0,2.84e-07
1367.0,1.289e-07
1368.0,2.965e-17
1369.0,8.825e-09
1370.0,3.611e-09
1371.0,1.659e-10
1372.0,7.145e-08
1373.0,1.927e-06
1374.0,1.097e-05
1375.0,1.946e-05
1376.0,2.122e-05
1377.0,9.324e-06
1378.0,9.82e-05
1379.0,3.913e-06
1380.0,4.932e-06
1381.0,1.161e-07
1382.0,6.1e-08
1383.0,7.918e-10
1384.0,9.218e-09
1385.0,7.187e-08
1386.0,4.749e-08
1387.0,9.894e-06
1388.0,2.02e-07
1389.0,4.262e-05
1390.0,3.628e-05
1391.0,2.34e-05
1392.0,1.448e-06
1393.0,8.54e-06
1394.0,3.126e-06
1395.0,1.868e-08
1396.0,3.681e-11
1397.0,3.142e-06
1398.0,0.0001074
1399.0,6.882e-05
1400.0,1.243e-11
1401.0,7.231e-11
1402.0,0.0002586
1403.0,0.0003065
1404.0,9.092e-05
1405.0,7.744e-09
1406.0,0.0002139
1407.0,2.076e-05
1408.0,0.0001784
1409.0,5.066e-05
1410.0,4.602e-05
1411.0,0.0002728
1412.0,0.0003989
1413.0,0.005156
1414.0,3.717e-05
1415.0,1.654e-05
1416.0,0.00991
1417.0,0.002564
1418.0,0.002806
1419.0,0.0004194
1420.0,0.001705
1421.0,0.001877
1422.0,0.01301
1423.0,0.002418
1424.0,0.004664
1425.0,0.006617
1426.0,0.008076
1427.0,0.0161
1428.0,0.0007944
1429.0,0.01138
1430.0,0.02113
1431.0,0.02365
1432.0,0.000618
1433.0,0.01446
1434.0,0.007066
1435.0,0.006108
1436.0,0.01323
1437.0,0.01019
1438.0,0.003908
