interpolation:linear
wavelength,value
280.0,1.303e-22
280.5,4.329e-21
281.0,2.3300000000000003e-20
281.5,4.137e-19
282.0,5.558e-19
282.5,1.362e-18
283.0,4.294e-18
283.5,6.994e-18
284.0,1.156e-16
284.5,3.383e-16
285.0,5.773e-16
285.5,2.836e-15
286.0,1.142e-14
286.5,5.133e-14
287.0,1.474e-13
287.5,5.696e-13
288.0,2.025e-12
288.5,5.954e-12
289.0,1.56e-11
289.5,4.661e-11
290.0,1.288e-10
290.5,2.622e-10
291.0,5.623e-10
291.5,1.614e-09
292.0,3.25e-09
292.5,4.547e-09
293.0,9.721e-09
293.5,2.357e-08
294.0,3.681e-08
294.5,4.937e-08
295.0,8.348e-08
295.5,1.391e-07
296.0,2.668e-07
296.5,3.706e-07
297.0,4.982e-07
297.5,1.323e-06
298.0,2.064e-06
298.5,2.057e-06
299.0,4.492e-06
299.5,7.318e-06
300.0,7.948e-06
300.5,1.135e-05
301.0,2.002e-05
301.5,3.106e-05
302.0,2.616e-05
302.5,5.168e-05
303.0,9.424e-05
303.5,0.0001209
304.0,0.000117
304.5,0.0001897
305.0,0.0003244
305.5,0.0004018
306.0,0.0004009
306.5,0.0005257
307.0,0.0008763
307.5,0.001306
308.0,0.001405
308.5,0.001756
309.0,0.002028
309.5,0.002688
310.0,0.002887
310.5,0.004834
311.0,0.006407
311.5,0.006332
312.0,0.007121
312.5,0.009362
313.0,0.01057
313.5,0.009886
314.0,0.01356
314.5,0.01359
315.0,0.01824
315.5,0.01438
316.0,0.01387
316.5,0.02168
317.0,0.02687
317.5,0.02729
318.0,0.02256
318.5,0.03129
319.0,0.03926
319.5,0.02925
320.0,0.03486
320.5,0.04885
321.0,0.04814
321.5,0.04662
322.0,0.04456
322.5,0.03898
323.0,0.04168
323.5,0.05526
324.0,0.06527
324.5,0.0643
325.0,0.05309
325.5,0.07232
326.0,0.09084
326.5,0.09454
327.0,0.09291
327.5,0.08814
328.0,0.07456
328.5,0.08339
329.0,0.1049
329.5,0.1209
330.0,0.1205
330.5,0.09285
331.0,0.09341
331.5,0.09767
332.0,0.1099
332.5,0.1108
333.0,0.1093
333.5,0.09602
334.0,0.09791
334.5,0.117
335.0,0.1121
335.5,0.1319
336.0,0.09126
336.5,0.1052
337.0,0.08508
337.5,0.1053
338.0,0.1058
338.5,0.1233
339.0,0.1223
339.5,0.1176
340.0,0.137
340.5,0.1239
341.0,0.1217
341.5,0.1122
342.0,0.1343
342.5,0.1258
343.0,0.1381
343.5,0.1299
344.0,0.09535
344.5,0.09685
345.0,0.1287
345.5,0.1317
346.0,0.1121
346.5,0.1272
347.0,0.1363
347.5,0.1102
348.0,0.126
348.5,0.1262
349.0,0.1172
349.5,0.1161
350.0,0.1437
350.5,0.1517
351.0,0.1354
351.5,0.1313
352.0,0.1414
352.5,0.1105
353.0,0.1395
353.5,0.1493
354.0,0.1552
354.5,0.1574
355.0,0.1569
355.5,0.1419
356.0,0.1486
356.5,0.127
357.0,0.1049
357.5,0.1285
358.0,0.1019
358.5,0.08717
359.0,0.1219
359.5,0.1553
360.0,0.1648
360.5,0.1318
361.0,0.1203
361.5,0.1388
362.0,0.1202
362.5,0.1665
363.0,0.1497
363.5,0.1381
364.0,0.169
364.5,0.1445
365.0,0.1473
365.5,0.185
366.0,0.1963
366.5,0.1846
367.0,0.1799
367.5,0.1868
368.0,0.1636
368.5,0.1652
369.0,0.1786
369.5,0.1905
370.0,0.2033
370.5,0.1579
371.0,0.1689
371.5,0.2114
372.0,0.1404
372.5,0.1685
373.0,0.1716
373.5,0.1117
374.0,0.1625
374.5,0.1347
375.0,0.131
375.5,0.1957
376.0,0.1623
376.5,0.1683
377.0,0.1784
377.5,0.2089
378.0,0.2265
378.5,0.2142
379.0,0.1769
379.5,0.1616
380.0,0.1681
380.5,0.2039
381.0,0.2045
381.5,0.1623
382.0,0.1443
382.5,0.1232
383.0,0.1142
383.5,0.1101
384.0,0.1215
384.5,0.1789
385.0,0.1776
385.5,0.1656
386.0,0.1419
386.5,0.1866
387.0,0.1552
387.5,0.1744
388.0,0.1612
388.5,0.1595
389.0,0.1723
389.5,0.2088
390.0,0.2098
390.5,0.1932
391.0,0.2277
391.5,0.2324
392.0,0.1959
392.5,0.1755
393.0,0.09777
393.5,0.07114
394.0,0.1449
394.5,0.1844
395.0,0.2251
395.5,0.2288
396.0,0.1985
396.5,0.1162
397.0,0.0873
397.5,0.1777
398.0,0.2489
398.5,0.2575
399.0,0.2792
399.5,0.2785
400.0,0.2893
401.0,0.291
402.0,0.3076
403.0,0.2928
404.0,0.2887
405.0,0.2891
406.0,0.285
407.0,0.2809
408.0,0.2921
409.0,0.3131
410.0,0.274
411.0,0.2973
412.0,0.32
413.0,0.3124
414.0,0.3168
415.0,0.3182
416.0,0.3244
417.0,0.3168
418.0,0.3113
419.0,0.3159
420.0,0.3149
421.0,0.3299
422.0,0.314
423.0,0.3071
424.0,0.325
425.0,0.3249
426.0,0.3173
427.0,0.3117
428.0,0.304
429.0,0.2886
430.0,0.2529
431.0,0.2508
432.0,0.3244
433.0,0.3266
434.0,0.3035
435.0,0.3172
436.0,0.3581
437.0,0.354
438.0,0.3228
439.0,0.3335
440.0,0.3446
441.0,0.3577
442.0,0.3839
443.0,0.3738
444.0,0.3826
445.0,0.3745
446.0,0.3583
447.0,0.3882
448.0,0.394
449.0,0.3966
450.0,0.4082
451.0,0.4237
452.0,0.4087
453.0,0.3849
454.0,0.4025
455.0,0.4051
456.0,0.4151
457.0,0.4222
458.0,0.4074
459.0,0.4056
460.0,0.4065
461.0,0.4161
462.0,0.42
463.0,0.4172
464.0,0.4113
465.0,0.4071
466.0,0.4118
467.0,0.4041
468.0,0.409
469.0,0.4112
470.0,0.398
471.0,0.3978
472.0,0.4192
473.0,0.4138
474.0,0.4139
475.0,0.4168
476.0,0.4035
477.0,0.404
478.0,0.4155
479.0,0.4135
480.0,0.4147
481.0,0.4233
482.0,0.4263
483.0,0.4222
484.0,0.4142
485.0,0.3953
486.0,0.3462
487.0,0.3635
488.0,0.3988
489.0,0.3998
490.0,0.4211
491.0,0.4143
492.0,0.3914
493.0,0.4045
494.0,0.4087
495.0,0.4124
496.0,0.415
497.0,0.4213
498.0,0.4015
499.0,0.4062
500.0,0.3939
501.0,0.386
502.0,0.3794
503.0,0.3937
504.0,0.3804
505.0,0.3966
506.0,0.4094
507.0,0.3898
508.0,0.3787
509.0,0.3902
510.0,0.3888
511.0,0.4
512.0,0.4047
513.0,0.3832
514.0,0.3808
515.0,0.3771
516.0,0.376
517.0,0.3343
518.0,0.3514
519.0,0.3685
520.0,0.3818
521.0,0.3853
522.0,0.3853
523.0,0.3781
524.0,0.391
525.0,0.3947
526.0,0.3767
527.0,0.3543
528.0,0.3741
529.0,0.3938
530.0,0.3878
531.0,0.3932
532.0,0.3795
533.0,0.3684
534.0,0.3796
535.0,0.3883
536.0,0.3923
537.0,0.3772
538.0,0.3841
539.0,0.3808
540.0,0.3649
541.0,0.3662
542.0,0.3772
543.0,0.374
544.0,0.3796
545.0,0.3786
546.0,0.3795
547.0,0.38
548.0,0.3759
549.0,0.3773
550.0,0.3818
551.0,0.3773
552.0,0.38
553.0,0.373
554.0,0.3818
555.0,0.3824
556.0,0.3772
557.0,0.3652
558.0,0.3619
559.0,0.3545
560.0,0.3586
561.0,0.3627
562.0,0.3594
563.0,0.3685
564.0,0.3578
565.0,0.3542
566.0,0.3485
567.0,0.3544
568.0,0.3494
569.0,0.3377
570.0,0.338
571.0,0.3368
572.0,0.3426
573.0,0.3459
574.0,0.3442
575.0,0.337
576.0,0.334
577.0,0.338
578.0,0.3339
579.0,0.3368
580.0,0.3458
581.0,0.3495
582.0,0.3578
583.0,0.3601
584.0,0.3642
585.0,0.3558
586.0,0.3486
587.0,0.3552
588.0,0.3423
589.0,0.2952
590.0,0.3093
591.0,0.3322
592.0,0.3251
593.0,0.3337
594.0,0.3299
595.0,0.3185
596.0,0.3379
597.0,0.3324
598.0,0.3336
599.0,0.3348
600.0,0.337
601.0,0.3356
602.0,0.3335
603.0,0.3397
604.0,0.3457
605.0,0.3443
606.0,0.3437
607.0,0.3479
608.0,0.3448
609.0,0.3461
610.0,0.3444
611.0,0.3467
612.0,0.3461
613.0,0.3422
614.0,0.3382
615.0,0.3462
616.0,0.3353
617.0,0.335
618.0,0.3483
619.0,0.345
620.0,0.3472
621.0,0.347
622.0,0.3425
623.0,0.3369
624.0,0.3316
625.0,0.3308
626.0,0.3355
627.0,0.3376
628.0,0.2959
629.0,0.3228
630.0,0.3146
631.0,0.3284
632.0,0.3257
633.0,0.3384
634.0,0.3373
635.0,0.3437
636.0,0.3404
637.0,0.347
638.0,0.3519
639.0,0.3488
640.0,0.3464
641.0,0.3469
642.0,0.3461
643.0,0.3509
644.0,0.3507
645.0,0.3508
646.0,0.3402
647.0,0.3307
648.0,0.3314
649.0,0.3241
650.0,0.3328
651.0,0.3484
652.0,0.3271
653.0,0.3443
654.0,0.341
655.0,0.3248
656.0,0.2903
657.0,0.2986
658.0,0.3369
659.0,0.3402
660.0,0.3422
661.0,0.3449
662.0,0.3444
663.0,0.338
664.0,0.344
665.0,0.3458
666.0,0.3467
667.0,0.3471
668.0,0.3481
669.0,0.354
670.0,0.3528
671.0,0.3532
672.0,0.3504
673.0,0.3561
674.0,0.3551
675.0,0.3522
676.0,0.355
677.0,0.3517
678.0,0.353
679.0,0.3476
680.0,0.3505
681.0,0.3483
682.0,0.348
683.0,0.3474
684.0,0.3456
685.0,0.3489
686.0,0.3465
687.0,0.1523
688.0,0.2104
689.0,0.2123
690.0,0.2349
691.0,0.2621
692.0,0.2842
693.0,0.2813
694.0,0.2812
695.0,0.3032
696.0,0.3043
697.0,0.3346
698.0,0.3291
699.0,0.3131
700.0,0.3089
701.0,0.3024
702.0,0.3077
703.0,0.3093
704.0,0.3241
705.0,0.3244
706.0,0.326
707.0,0.3271
708.0,0.3275
709.0,0.3314
710.0,0.3295
711.0,0.3304
712.0,0.331
713.0,0.3261
714.0,0.3278
715.0,0.3141
716.0,0.3134
717.0,0.2428
718.0,0.221
719.0,0.2002
720.0,0.2066
721.0,0.2442
722.0,0.297
723.0,0.2679
724.0,0.2306
725.0,0.2236
726.0,0.2348
727.0,0.2454
728.0,0.2218
729.0,0.24
730.0,0.2513
731.0,0.2388
732.0,0.2661
733.0,0.2912
734.0,0.3015
735.0,0.2935
736.0,0.2925
737.0,0.2938
738.0,0.3064
739.0,0.3006
740.0,0.3108
741.0,0.3091
742.0,0.311
743.0,0.3194
744.0,0.3194
745.0,0.3203
746.0,0.3217
747.0,0.3227
748.0,0.3221
749.0,0.3185
750.0,0.3184
751.0,0.3152
752.0,0.3167
753.0,0.3184
754.0,0.3191
755.0,0.3173
756.0,0.3172
757.0,0.3177
758.0,0.3135
759.0,0.3018
760.0,0.009413
761.0,0.003162
762.0,0.08009
763.0,0.02047
764.0,0.04498
765.0,0.07986
766.0,0.1255
767.0,0.194
768.0,0.2584
769.0,0.2724
770.0,0.2916
771.0,0.2985
772.0,0.3006
773.0,0.3031
774.0,0.3019
775.0,0.2999
776.0,0.3036
777.0,0.2997
778.0,0.2978
779.0,0.2981
780.0,0.2965
781.0,0.2969
782.0,0.2988
783.0,0.2938
784.0,0.2954
785.0,0.2928
786.0,0.2957
787.0,0.2865
788.0,0.2811
789.0,0.2809
790.0,0.2682
791.0,0.2758
792.0,0.2746
793.0,0.2697
794.0,0.2796
795.0,0.2828
796.0,0.2667
797.0,0.2663
798.0,0.2816
799.0,0.2784
800.0,0.2719
801.0,0.2691
802.0,0.2682
803.0,0.2652
804.0,0.2664
805.0,0.2678
806.0,0.2792
807.0,0.275
808.0,0.2755
809.0,0.2674
810.0,0.2635
811.0,0.2604
812.0,0.2473
813.0,0.2404
814.0,0.1984
815.0,0.1983
816.0,0.1827
817.0,0.1867
818.0,0.1767
819.0,0.2086
820.0,0.1927
821.0,0.2423
822.0,0.2327
823.0,0.1333
824.0,0.2192
825.0,0.2384
826.0,0.2235
827.0,0.2417
828.0,0.1884
829.0,0.2234
830.0,0.2193
831.0,0.22
832.0,0.2103
833.0,0.2311
834.0,0.2181
835.0,0.2519
836.0,0.2324
837.0,0.2527
838.0,0.2404
839.0,0.2493
840.0,0.2558
841.0,0.2504
842.0,0.2538
843.0,0.2567
844.0,0.2516
845.0,0.2622
846.0,0.2616
847.0,0.2576
848.0,0.2547
849.0,0.2474
850.0,0.2372
851.0,0.2497
852.0,0.2486
853.0,0.2404
854.0,0.2066
855.0,0.2284
856.0,0.249
857.0,0.2555
858.0,0.2532
859.0,0.254
860.0,0.2549
861.0,0.2534
862.0,0.2576
863.0,0.2637
864.0,0.2506
865.0,0.2485
866.0,0.2234
867.0,0.2332
868.0,0.2538
869.0,0.2486
870.0,0.2558
871.0,0.2523
872.0,0.2515
873.0,0.251
874.0,0.248
875.0,0.2429
876.0,0.2454
877.0,0.248
878.0,0.2504
879.0,0.2466
880.0,0.2413
881.0,0.2371
882.0,0.2419
883.0,0.2434
884.0,0.242
885.0,0.2438
886.0,0.2299
887.0,0.2343
888.0,0.2367
889.0,0.2414
890.0,0.2368
891.0,0.2377
892.0,0.2275
893.0,0.2175
894.0,0.203
895.0,0.1835
896.0,0.1709
897.0,0.1378
898.0,0.1545
899.0,0.1078
900.0,0.1641
901.0,0.1129
902.0,0.1453
903.0,0.142
904.0,0.2012
905.0,0.1915
906.0,0.1766
907.0,0.1284
908.0,0.1342
909.0,0.1507
910.0,0.1227
911.0,0.1394
912.0,0.1457
913.0,0.1239
914.0,0.1252
915.0,0.1344
916.0,0.1126
917.0,0.1532
918.0,0.1145
919.0,0.1599
920.0,0.1702
921.0,0.1761
922.0,0.1496
923.0,0.1712
924.0,0.1507
925.0,0.1481
926.0,0.1481
927.0,0.1734
928.0,0.105
929.0,0.09028
930.0,0.06211
931.0,0.05861
932.0,0.03423
933.0,0.02476
934.0,0.008084
935.0,0.02762
936.0,0.01332
937.0,0.01342
938.0,0.0178
939.0,0.05654
940.0,0.07445
941.0,0.04838
942.0,0.05973
943.0,0.03363
944.0,0.04127
945.0,0.05164
946.0,0.01906
947.0,0.04983
948.0,0.03597
949.0,0.07451
950.0,0.01143
951.0,0.07404
952.0,0.03081
953.0,0.04568
954.0,0.06296
955.0,0.04701
956.0,0.05384
957.0,0.03051
958.0,0.08351
959.0,0.05692
960.0,0.06389
961.0,0.07924
962.0,0.07475
963.0,0.09297
964.0,0.08331
965.0,0.0921
966.0,0.09165
967.0,0.09009
968.0,0.1494
969.0,0.1512
970.0,0.1366
971.0,0.1692
972.0,0.1588
973.0,0.1255
974.0,0.1184
975.0,0.1266
976.0,0.113
977.0,0.1441
978.0,0.1304
979.0,0.1399
980.0,0.13
981.0,0.1685
982.0,0.1563
983.0,0.1476
984.0,0.1798
985.0,0.1554
986.0,0.187
987.0,0.1792
988.0,0.1792
989.0,0.1891
990.0,0.178
991.0,0.1892
992.0,0.1907
993.0,0.1822
994.0,0.1912
995.0,0.1916
996.0,0.19
997.0,0.1907
998.0,0.1895
999.0,0.189
1000.0,0.1866
1001.0,0.1902
1002.0,0.1803
1003.0,0.1865
1004.0,0.1807
1005.0,0.1758
1006.0,0.1819
1007.0,0.1861
1008.0,0.1843
1009.0,0.1824
1010.0,0.1812
1011.0,0.1853
1012.0,0.1828
1013.0,0.1851
1014.0,0.1838
1015.0,0.1824
1016.0,0.1815
1017.0,0.1818
1018.0,0.1817
1019.0,0.176
1020.0,0.1805
1021.0,0.1805
1022.0,0.1785
1023.0,0.1803
1024.0,0.1761
1025.0,0.1807
1026.0,0.1795
1027.0,0.1792
1028.0,0.1787
1029.0,0.1764
1030.0,0.1782
1031.0,0.1773
1032.0,0.1769
1033.0,0.1742
1034.0,0.1743
1035.0,0.1749
1036.0,0.1755
1037.0,0.1728
1038.0,0.1735
1039.0,0.1732
1040.0,0.1725
1041.0,0.173
1042.0,0.1718
1043.0,0.1712
1044.0,0.1717
1045.0,0.1692
1046.0,0.1672
1047.0,0.1686
1048.0,0.1694
1049.0,0.1686
1050.0,0.1677
1051.0,0.1673
1052.0,0.1664
1053.0,0.1649
1054.0,0.165
1055.0,0.1648
1056.0,0.1639
1057.0,0.1631
1058.0,0.1589
1059.0,0.1588
1060.0,0.1584
1061.0,0.158
1062.0,0.1585
1063.0,0.1568
1064.0,0.1587
1065.0,0.1569
1066.0,0.1543
1067.0,0.1561
1068.0,0.1522
1069.0,0.148
1070.0,0.1525
1071.0,0.1565
1072.0,0.1535
1073.0,0.1515
1074.0,0.1572
1075.0,0.1451
1076.0,0.1568
1077.0,0.1517
1078.0,0.1476
1079.0,0.1551
1080.0,0.1494
1081.0,0.1423
1082.0,0.1483
1083.0,0.1499
1084.0,0.1412
1085.0,0.15
1086.0,0.1313
1087.0,0.1392
1088.0,0.149
1089.0,0.14
1090.0,0.1351
1091.0,0.1474
1092.0,0.1478
1093.0,0.1145
1094.0,0.1338
1095.0,0.1196
1096.0,0.1117
1097.0,0.1444
1098.0,0.1082
1099.0,0.1144
1100.0,0.1025
1101.0,0.1053
1102.0,0.09764
1103.0,0.09464
1104.0,0.09511
1105.0,0.1109
1106.0,0.06904
1107.0,0.1024
1108.0,0.07747
1109.0,0.07893
1110.0,0.09925
1111.0,0.05489
1112.0,0.07888
1113.0,0.03889
1114.0,0.04376
1115.0,0.03527
1116.0,0.02284
1117.0,0.004518
1118.0,0.02589
1119.0,0.008971
1120.0,0.01068
1121.0,0.01594
1122.0,0.004093
1123.0,0.00978
1124.0,0.0082
1125.0,0.01165
1126.0,0.00179
1127.0,0.01338
1128.0,0.005182
1129.0,0.005711
1130.0,0.003437
1131.0,0.03464
1132.0,0.02519
1133.0,0.01121
1134.0,0.001342
1135.0,0.0006005
1136.0,0.007923
1137.0,0.0321
1138.0,0.02156
1139.0,0.04429
1140.0,0.03224
1141.0,0.02066
1142.0,0.02578
1143.0,0.04221
1144.0,0.009843
1145.0,0.01074
1146.0,0.01154
1147.0,0.001954
1148.0,0.03554
1149.0,0.02515
1150.0,0.01176
1151.0,0.02142
1152.0,0.03022
1153.0,0.0327
1154.0,0.01093
1155.0,0.04609
1156.0,0.03889
1157.0,0.04956
1158.0,0.04879
1159.0,0.05514
1160.0,0.04539
1161.0,0.06342
1162.0,0.06284
1163.0,0.0997
1164.0,0.08031
1165.0,0.07053
1166.0,0.07454
1167.0,0.08366
1168.0,0.08352
1169.0,0.08675
1170.0,0.09901
1171.0,0.0965
1172.0,0.1016
1173.0,0.09892
1174.0,0.06055
1175.0,0.09973
1176.0,0.1163
1177.0,0.107
1178.0,0.07251
1179.0,0.1172
1180.0,0.09746
1181.0,0.1008
1182.0,0.06044
1183.0,0.1006
1184.0,0.09115
1185.0,0.08505
1186.0,0.1106
1187.0,0.1022
1188.0,0.05964
1189.0,0.09476
1190.0,0.1089
1191.0,0.09688
1192.0,0.1111
1193.0,0.1042
1194.0,0.1089
1195.0,0.09856
1196.0,0.09259
1197.0,0.1107
1198.0,0.09949
1199.0,0.07574
1200.0,0.1029
1201.0,0.09585
1202.0,0.09836
1203.0,0.0955
1204.0,0.08004
1205.0,0.103
1206.0,0.1181
1207.0,0.09667
1208.0,0.09789
1209.0,0.1003
1210.0,0.1066
1211.0,0.09844
1212.0,0.09195
1213.0,0.1116
1214.0,0.09602
1215.0,0.0938
1216.0,0.1119
1217.0,0.1073
1218.0,0.1108
1219.0,0.1083
1220.0,0.1111
1221.0,0.1134
1222.0,0.1097
1223.0,0.1079
1224.0,0.1052
1225.0,0.1123
1226.0,0.1145
1227.0,0.1007
1228.0,0.1161
1229.0,0.1145
1230.0,0.1117
1231.0,0.118
1232.0,0.1172
1233.0,0.1089
1234.0,0.1189
1235.0,0.1174
1236.0,0.1188
1237.0,0.1155
1238.0,0.1184
1239.0,0.1169
1240.0,0.1176
1241.0,0.1159
1242.0,0.1166
1243.0,0.1157
1244.0,0.1162
1245.0,0.1169
1246.0,0.1163
1247.0,0.1155
1248.0,0.1148
1249.0,0.1157
1250.0,0.1147
1251.0,0.1125
1252.0,0.1134
1253.0,0.1109
1254.0,0.1086
1255.0,0.1129
1256.0,0.1067
1257.0,0.1055
1258.0,0.1099
1259.0,0.1013
1260.0,0.1024
1261.0,0.09122
1262.0,0.08571
1263.0,0.08574
1264.0,0.07312
1265.0,0.08529
1266.0,0.07844
1267.0,0.08234
1268.0,0.07414
1269.0,0.02666
1270.0,0.08104
1271.0,0.09164
1272.0,0.09248
1273.0,0.09089
1274.0,0.09203
1275.0,0.09433
1276.0,0.09635
1277.0,0.09845
1278.0,0.1025
1279.0,0.1015
1280.0,0.1003
1281.0,0.09676
1282.0,0.09496
1283.0,0.1019
1284.0,0.104
1285.0,0.105
1286.0,0.1074
1287.0,0.104
1288.0,0.1045
1289.0,0.09775
1290.0,0.1038
1291.0,0.1059
1292.0,0.09333
1293.0,0.1024
1294.0,0.1014
1295.0,0.09877
1296.0,0.09071
1297.0,0.08335
1298.0,0.0953
1299.0,0.1031
1300.0,0.07824
1301.0,0.08207
1302.0,0.0952
1303.0,0.078
1304.0,0.05877
1305.0,0.09284
1306.0,0.0918
1307.0,0.06287
1308.0,0.07951
1309.0,0.08956
1310.0,0.06085
1311.0,0.07433
1312.0,0.07139
1313.0,0.06783
1314.0,0.0578
1315.0,0.05545
1316.0,0.07162
1317.0,0.0666
1318.0,0.07585
1319.0,0.05008
1320.0,0.05015
1321.0,0.0618
1322.0,0.0606
1323.0,0.03843
1324.0,0.04955
1325.0,0.06936
1326.0,0.05508
1327.0,0.05117
1328.0,0.04151
1329.0,0.02528
1330.0,0.03617
1331.0,0.01609
1332.0,0.01805
1333.0,0.02617
1334.0,0.02629
1335.0,0.03749
1336.0,0.02612
1337.0,0.02247
1338.0,0.02384
1339.0,0.02442
1340.0,0.02551
1341.0,0.02071
1342.0,0.02237
1343.0,0.009647
1344.0,0.006304
1345.0,0.008517
1346.0,0.00212
1347.0,0.001852
1348.0,3.281e-05
1349.0,0.0001523
1350.0,0.0001877
1351.0,1.477e-05
1352.0,1.373e-06
1353.0,5.535e-08
1354.0,2.354e-07
1355.0,1.383e-09
1356.0,2.688e-08
1357.0,4.064e-08
1358.0,1.627e-09
1359.0,2.021e-10
1360.0,7.336e-10
1361.0,8.163e-13
1362.0,2.233e-15
1363.0,9.821e-10
1364.0,4.058e-10
1365.0,7.796e-16
1366.0,4.26e-09
1367.0,1.748e-09
1368.0,6.02e-18
1369.0,1.495e-10
1370.0,7.355e-11
1371.0,4.168e-12
1372.0,9.492e-10
1373.0,1.975e-08
1374.0,1.004e-07
1375.0,1.726e-07
1376.0,2.088e-07
1377.0,9.071e-08
1378.0,8.776e-07
1379.0,3.93e-08
1380.0,4.539e-08
1381.0,1.151e-09
1382.0,8.297e-10
1383.0,1.238e-11
1384.0,1.619e-10
1385.0,7.963e-10
1386.0,7.288e-10
1387.0,9.142e-08
1388.0,1.95e-09
1389.0,3.66e-07
1390.0,3.007e-07
1391.0,2.015e-07
1392.0,1.337e-08
1393.0,7.909e-08
1394.0,3.088e-08
1395.0,2.233e-10
1396.0,1.063e-12
1397.0,2.834e-08
1398.0,8.843e-07
1399.0,5.813e-07
1400.0,4.544e-13
1401.0,1.885e-12
1402.0,5.108e-06
1403.0,4.521e-06
1404.0,1.14e-06
1405.0,1.047e-10
1406.0,1.975e-06
1407.0,3.536e-07
1408.0,1.739e-06
1409.0,4.047e-07
1410.0,4.991e-07
1411.0,4.269e-06
1412.0,8.58e-06
1413.0,0.000223
1414.0,4.356e-07
1415.0,1.697e-07
1416.0,0.000978
1417.0,0.000159
1418.0,0.0001085
1419.0,1.465e-05
1420.0,6.504e-05
1421.0,0.0001072
1422.0,0.001266
1423.0,0.0002232
