interpolation:linear
wavelength,value
280.0,3.25e-20
280.5,9.277e-19
281.0,4.749e-18
281.5,4.298e-19
282.0,1.812e-18
282.5,5.096e-18
283.0,1.693e-17
283.5,2.791e-17
284.0,4.416e-16
284.5,1.248e-15
285.0,2.141e-15
285.5,1.273e-14
286.0,5.37e-14
286.5,2.548e-13
287.0,7.492e-13
287.5,2.935e-12
288.0,8.944e-12
288.5,3.493e-11
289.0,1.161e-10
289.5,4.315e-10
290.0,1.399e-09
290.5,3.232e-09
291.0,7.99e-09
291.5,2.715e-08
292.0,7.48e-08
292.5,1.182e-07
293.0,2.955e-07
293.5,8.905e-07
294.0,1.637e-06
294.5,2.156e-06
295.0,4.255e-06
295.5,1.055e-05
296.0,2.026e-05
296.5,2.818e-05
297.0,3.796e-05
297.5,0.000101
298.0,0.0001579
298.5,0.0001578
299.0,0.0003458
299.5,0.0005666
300.0,0.0006191
300.5,0.0008904
301.0,0.001592
301.5,0.002512
302.0,0.00214
302.5,0.004058
303.0,0.007006
303.5,0.008599
304.0,0.007933
304.5,0.01128
305.0,0.016
305.5,0.01757
306.0,0.01674
306.5,0.02029
307.0,0.02839
307.5,0.0357
308.0,0.03737
308.5,0.04295
309.0,0.04151
309.5,0.04574
310.0,0.04515
310.5,0.07249
311.0,0.08966
311.5,0.08599
312.0,0.08326
312.5,0.09916
313.0,0.1063
313.5,0.1043
314.0,0.1271
314.5,0.1089
315.0,0.1422
315.5,0.1209
316.0,0.1027
316.5,0.1439
317.0,0.1788
317.5,0.1873
318.0,0.1437
318.5,0.1728
319.0,0.2018
319.5,0.1688
320.0,0.2047
320.5,0.248
321.0,0.2144
321.5,0.205
322.0,0.2254
322.5,0.1958
323.0,0.191
323.5,0.2302
324.0,0.2678
324.5,0.2741
325.0,0.2394
325.5,0.3028
326.0,0.3683
326.5,0.3647
327.0,0.365
327.5,0.3543
328.0,0.3201
328.5,0.3305
329.0,0.3901
329.5,0.4409
330.0,0.4463
330.5,0.3611
331.0,0.3692
331.5,0.3722
332.0,0.3974
332.5,0.3909
333.0,0.391
333.5,0.3569
334.0,0.3662
334.5,0.4183
335.0,0.3909
335.5,0.4565
336.0,0.3158
336.5,0.3708
337.0,0.3055
337.5,0.3805
338.0,0.3685
338.5,0.4252
339.0,0.4207
339.5,0.4047
340.0,0.4757
340.5,0.4284
341.0,0.4179
341.5,0.3836
342.0,0.4583
342.5,0.4287
343.0,0.4716
343.5,0.4441
344.0,0.3281
344.5,0.3315
345.0,0.4385
345.5,0.4475
346.0,0.3803
346.5,0.4305
347.0,0.4622
347.5,0.3737
348.0,0.4259
348.5,0.4257
349.0,0.3948
349.5,0.3909
350.0,0.4834
350.5,0.5099
351.0,0.4556
351.5,0.4429
352.0,0.4755
352.5,0.371
353.0,0.4672
353.5,0.4996
354.0,0.5186
354.5,0.5259
355.0,0.5242
355.5,0.4735
356.0,0.4953
356.5,0.423
357.0,0.3495
357.5,0.4279
358.0,0.3391
358.5,0.2897
359.0,0.4053
359.5,0.5166
360.0,0.5476
360.5,0.4376
361.0,0.3989
361.5,0.4592
362.0,0.3971
362.5,0.5495
363.0,0.4935
363.5,0.4545
364.0,0.5558
364.5,0.4751
365.0,0.4839
365.5,0.6073
366.0,0.6433
366.5,0.6044
367.0,0.5886
367.5,0.6109
368.0,0.5346
368.5,0.5394
369.0,0.5825
369.5,0.6209
370.0,0.6619
370.5,0.5137
371.0,0.5489
371.5,0.6867
372.0,0.4558
372.5,0.5465
373.0,0.5559
373.5,0.3617
374.0,0.5255
374.5,0.4352
375.0,0.4231
375.5,0.6317
376.0,0.5236
376.5,0.5427
377.0,0.5746
377.5,0.6722
378.0,0.7287
378.5,0.6888
379.0,0.5685
379.5,0.5193
380.0,0.5399
380.5,0.654
381.0,0.6553
381.5,0.5194
382.0,0.4613
382.5,0.3932
383.0,0.364
383.5,0.3506
384.0,0.3868
384.5,0.5689
385.0,0.5642
385.5,0.5254
386.0,0.45
386.5,0.5911
387.0,0.4912
387.5,0.5517
388.0,0.5094
388.5,0.5036
389.0,0.5436
389.5,0.6584
390.0,0.6608
390.5,0.6081
391.0,0.7158
391.5,0.7302
392.0,0.615
392.5,0.5506
393.0,0.3064
393.5,0.2227
394.0,0.4532
394.5,0.5762
395.0,0.7031
395.5,0.7143
396.0,0.6193
396.5,0.362
397.0,0.2717
397.5,0.5525
398.0,0.7738
398.5,0.7998
399.0,0.866
399.5,0.8632
400.0,0.8964
401.0,0.9107
402.0,0.9607
403.0,0.9126
404.0,0.8986
405.0,0.8984
406.0,0.8838
407.0,0.8695
408.0,0.9035
409.0,0.967
410.0,0.8449
411.0,0.9151
412.0,0.9827
413.0,0.9585
414.0,0.9701
415.0,0.9726
416.0,0.9895
417.0,0.9652
418.0,0.9473
419.0,0.9597
420.0,0.9555
421.0,0.9995
422.0,0.95
423.0,0.928
424.0,0.9815
425.0,0.9797
426.0,0.9541
427.0,0.9362
428.0,0.912
429.0,0.8637
430.0,0.7558
431.0,0.7492
432.0,0.9671
433.0,0.9724
434.0,0.9029
435.0,0.9431
436.0,1.062
437.0,1.048
438.0,0.9541
439.0,0.9871
440.0,1.018
441.0,1.055
442.0,1.131
443.0,1.102
444.0,1.126
445.0,1.102
446.0,1.051
447.0,1.136
448.0,1.154
449.0,1.158
450.0,1.19
451.0,1.234
452.0,1.189
453.0,1.118
454.0,1.167
455.0,1.175
456.0,1.202
457.0,1.222
458.0,1.181
459.0,1.175
460.0,1.178
461.0,1.205
462.0,1.214
463.0,1.206
464.0,1.185
465.0,1.17
466.0,1.181
467.0,1.16
468.0,1.173
469.0,1.179
470.0,1.142
471.0,1.14
472.0,1.202
473.0,1.186
474.0,1.188
475.0,1.199
476.0,1.163
477.0,1.167
478.0,1.199
479.0,1.191
480.0,1.193
481.0,1.215
482.0,1.221
483.0,1.206
484.0,1.181
485.0,1.125
486.0,0.9832
487.0,1.03
488.0,1.13
489.0,1.134
490.0,1.193
491.0,1.172
492.0,1.107
493.0,1.143
494.0,1.154
495.0,1.164
496.0,1.171
497.0,1.189
498.0,1.134
499.0,1.148
500.0,1.115
501.0,1.095
502.0,1.08
503.0,1.125
504.0,1.098
505.0,1.136
506.0,1.172
507.0,1.115
508.0,1.08
509.0,1.11
510.0,1.104
511.0,1.133
512.0,1.145
513.0,1.084
514.0,1.076
515.0,1.066
516.0,1.063
517.0,0.9446
518.0,0.9931
519.0,1.042
520.0,1.08
521.0,1.09
522.0,1.091
523.0,1.071
524.0,1.11
525.0,1.123
526.0,1.073
527.0,1.012
528.0,1.07
529.0,1.128
530.0,1.112
531.0,1.129
532.0,1.09
533.0,1.058
534.0,1.089
535.0,1.113
536.0,1.123
537.0,1.079
538.0,1.098
539.0,1.088
540.0,1.044
541.0,1.051
542.0,1.084
543.0,1.072
544.0,1.091
545.0,1.088
546.0,1.093
547.0,1.092
548.0,1.079
549.0,1.082
550.0,1.095
551.0,1.081
552.0,1.089
553.0,1.07
554.0,1.095
555.0,1.097
556.0,1.083
557.0,1.05
558.0,1.042
559.0,1.023
560.0,1.036
561.0,1.049
562.0,1.042
563.0,1.071
564.0,1.042
565.0,1.033
566.0,1.018
567.0,1.038
568.0,1.029
569.0,1.006
570.0,1.006
571.0,0.9994
572.0,1.024
573.0,1.036
574.0,1.032
575.0,1.013
576.0,1.004
577.0,1.015
578.0,0.9994
579.0,1.003
580.0,1.021
581.0,1.025
582.0,1.044
583.0,1.046
584.0,1.055
585.0,1.029
586.0,1.007
587.0,1.03
588.0,1.007
589.0,0.8956
590.0,0.9363
591.0,0.9886
592.0,0.9774
593.0,0.9902
594.0,0.984
595.0,0.961
596.0,0.9959
597.0,0.9858
598.0,0.9824
599.0,0.9829
600.0,0.9836
601.0,0.975
602.0,0.9683
603.0,0.984
604.0,1.0
605.0,0.9949
606.0,0.9905
607.0,0.9999
608.0,0.9886
609.0,0.9901
610.0,0.9827
611.0,0.9876
612.0,0.9846
613.0,0.972
614.0,0.9585
615.0,0.9791
616.0,0.9467
617.0,0.9446
618.0,0.9808
619.0,0.9708
620.0,0.9769
621.0,0.9781
622.0,0.9669
623.0,0.9524
624.0,0.9359
625.0,0.9338
626.0,0.9477
627.0,0.9589
628.0,0.9033
629.0,0.9389
630.0,0.9175
631.0,0.9356
632.0,0.9239
633.0,0.951
634.0,0.9409
635.0,0.9551
636.0,0.942
637.0,0.957
638.0,0.9657
639.0,0.9545
640.0,0.9449
641.0,0.9441
642.0,0.9395
643.0,0.9521
644.0,0.9487
645.0,0.9504
646.0,0.9292
647.0,0.9202
648.0,0.9213
649.0,0.9036
650.0,0.9053
651.0,0.944
652.0,0.9077
653.0,0.9314
654.0,0.9207
655.0,0.8879
656.0,0.7859
657.0,0.8069
658.0,0.9035
659.0,0.9096
660.0,0.9132
661.0,0.9196
662.0,0.922
663.0,0.9035
664.0,0.9135
665.0,0.9136
666.0,0.9141
667.0,0.9129
668.0,0.9131
669.0,0.927
670.0,0.9229
671.0,0.9225
672.0,0.9145
673.0,0.9282
674.0,0.9246
675.0,0.9161
676.0,0.9222
677.0,0.913
678.0,0.9155
679.0,0.9006
680.0,0.9078
681.0,0.9017
682.0,0.9006
683.0,0.8988
684.0,0.8944
685.0,0.9019
686.0,0.8967
687.0,0.6289
688.0,0.7209
689.0,0.723
690.0,0.7529
691.0,0.7864
692.0,0.8102
693.0,0.8041
694.0,0.7974
695.0,0.8264
696.0,0.8275
697.0,0.873
698.0,0.8596
699.0,0.8424
700.0,0.8323
701.0,0.8249
702.0,0.8293
703.0,0.8308
704.0,0.8554
705.0,0.8567
706.0,0.8551
707.0,0.8555
708.0,0.8574
709.0,0.8574
710.0,0.858
711.0,0.8564
712.0,0.8533
713.0,0.8452
714.0,0.8482
715.0,0.8227
716.0,0.8235
717.0,0.7266
718.0,0.6694
719.0,0.6145
720.0,0.6446
721.0,0.7039
722.0,0.7971
723.0,0.7464
724.0,0.6773
725.0,0.6682
726.0,0.6986
727.0,0.7056
728.0,0.6671
729.0,0.6876
730.0,0.7275
731.0,0.6974
732.0,0.7414
733.0,0.7803
734.0,0.7976
735.0,0.7817
736.0,0.7807
737.0,0.7839
738.0,0.793
739.0,0.7775
740.0,0.7968
741.0,0.7883
742.0,0.7885
743.0,0.8084
744.0,0.8058
745.0,0.8057
746.0,0.8094
747.0,0.8111
748.0,0.8094
749.0,0.8001
750.0,0.7996
751.0,0.7915
752.0,0.7948
753.0,0.7988
754.0,0.8006
755.0,0.7961
756.0,0.7957
757.0,0.7969
758.0,0.787
759.0,0.7728
760.0,0.1615
761.0,0.09176
762.0,0.429
763.0,0.234
764.0,0.3344
765.0,0.4292
766.0,0.511
767.0,0.6291
768.0,0.7136
769.0,0.7258
770.0,0.7474
771.0,0.7521
772.0,0.7532
773.0,0.7584
774.0,0.7546
775.0,0.7488
776.0,0.7579
777.0,0.7479
778.0,0.7434
779.0,0.744
780.0,0.7398
781.0,0.7405
782.0,0.7451
783.0,0.7321
784.0,0.7356
785.0,0.7302
786.0,0.7384
787.0,0.7268
788.0,0.7184
789.0,0.7182
790.0,0.701
791.0,0.7052
792.0,0.6998
793.0,0.6887
794.0,0.6985
795.0,0.7108
796.0,0.6915
797.0,0.6925
798.0,0.7102
799.0,0.7062
800.0,0.6946
801.0,0.6929
802.0,0.6909
803.0,0.686
804.0,0.6866
805.0,0.6837
806.0,0.7017
807.0,0.6935
808.0,0.694
809.0,0.6819
810.0,0.677
811.0,0.6791
812.0,0.6614
813.0,0.6488
814.0,0.5767
815.0,0.573
816.0,0.5341
817.0,0.5432
818.0,0.5242
819.0,0.5808
820.0,0.5491
821.0,0.6347
822.0,0.6177
823.0,0.4314
824.0,0.6022
825.0,0.624
826.0,0.6025
827.0,0.6335
828.0,0.5435
829.0,0.5984
830.0,0.5912
831.0,0.5931
832.0,0.576
833.0,0.6096
834.0,0.5901
835.0,0.6438
836.0,0.619
837.0,0.6454
838.0,0.6265
839.0,0.6354
840.0,0.649
841.0,0.6403
842.0,0.6408
843.0,0.6396
844.0,0.6312
845.0,0.6519
846.0,0.6489
847.0,0.6365
848.0,0.633
849.0,0.615
850.0,0.5892
851.0,0.6242
852.0,0.6196
853.0,0.5961
854.0,0.5149
855.0,0.5654
856.0,0.618
857.0,0.6316
858.0,0.627
859.0,0.6274
860.0,0.6284
861.0,0.625
862.0,0.6348
863.0,0.6498
864.0,0.6173
865.0,0.6118
866.0,0.5501
867.0,0.5741
868.0,0.6247
869.0,0.6117
870.0,0.6292
871.0,0.6206
872.0,0.6184
873.0,0.6172
874.0,0.6098
875.0,0.5975
876.0,0.6037
877.0,0.6098
878.0,0.6165
879.0,0.607
880.0,0.5939
881.0,0.5852
882.0,0.5979
883.0,0.5996
884.0,0.5969
885.0,0.6015
886.0,0.5738
887.0,0.5795
888.0,0.5883
889.0,0.5945
890.0,0.5901
891.0,0.5888
892.0,0.5725
893.0,0.5556
894.0,0.5379
895.0,0.5106
896.0,0.482
897.0,0.4171
898.0,0.4534
899.0,0.3486
900.0,0.4623
901.0,0.3653
902.0,0.4237
903.0,0.4295
904.0,0.5338
905.0,0.5165
906.0,0.4841
907.0,0.398
908.0,0.4052
909.0,0.4368
910.0,0.3902
911.0,0.4135
912.0,0.4314
913.0,0.3961
914.0,0.3921
915.0,0.4247
916.0,0.3606
917.0,0.4534
918.0,0.3699
919.0,0.4606
920.0,0.4633
921.0,0.4814
922.0,0.4332
923.0,0.4649
924.0,0.4442
925.0,0.4346
926.0,0.4394
927.0,0.4892
928.0,0.3663
929.0,0.3364
930.0,0.2674
931.0,0.2528
932.0,0.1851
933.0,0.1521
934.0,0.08679
935.0,0.1543
936.0,0.09846
937.0,0.1001
938.0,0.1222
939.0,0.245
940.0,0.2926
941.0,0.2237
942.0,0.2572
943.0,0.1714
944.0,0.1785
945.0,0.2301
946.0,0.12
947.0,0.2319
948.0,0.1708
949.0,0.3076
950.0,0.08992
951.0,0.3024
952.0,0.1662
953.0,0.2122
954.0,0.2574
955.0,0.2143
956.0,0.2066
957.0,0.1669
958.0,0.2889
959.0,0.2325
960.0,0.2606
961.0,0.2902
962.0,0.2748
963.0,0.3148
964.0,0.2891
965.0,0.3134
966.0,0.314
967.0,0.3128
968.0,0.4125
969.0,0.4314
970.0,0.3971
971.0,0.4516
972.0,0.4325
973.0,0.3796
974.0,0.3608
975.0,0.3733
976.0,0.3561
977.0,0.402
978.0,0.3832
979.0,0.4004
980.0,0.3771
981.0,0.4488
982.0,0.4302
983.0,0.4137
984.0,0.4612
985.0,0.4286
986.0,0.4686
987.0,0.4602
988.0,0.4594
989.0,0.4667
990.0,0.4566
991.0,0.4682
992.0,0.4708
993.0,0.4611
994.0,0.4706
995.0,0.4699
996.0,0.4679
997.0,0.4685
998.0,0.4664
999.0,0.4646
1000.0,0.4615
1001.0,0.4671
1002.0,0.455
1003.0,0.4589
1004.0,0.4479
1005.0,0.4312
1006.0,0.4482
1007.0,0.4576
1008.0,0.4553
1009.0,0.453
1010.0,0.4511
1011.0,0.4553
1012.0,0.4515
1013.0,0.4541
1014.0,0.4509
1015.0,0.448
1016.0,0.446
1017.0,0.4471
1018.0,0.4454
1019.0,0.4361
1020.0,0.443
1021.0,0.4424
1022.0,0.4391
1023.0,0.4437
1024.0,0.4383
1025.0,0.4433
1026.0,0.4415
1027.0,0.4405
1028.0,0.4396
1029.0,0.4344
1030.0,0.4373
1031.0,0.4356
1032.0,0.4343
1033.0,0.4277
1034.0,0.4277
1035.0,0.4291
1036.0,0.4313
1037.0,0.4243
1038.0,0.4262
1039.0,0.426
1040.0,0.4243
1041.0,0.426
1042.0,0.423
1043.0,0.4217
1044.0,0.4232
1045.0,0.4174
1046.0,0.4129
1047.0,0.4166
1048.0,0.4189
1049.0,0.4174
1050.0,0.4155
1051.0,0.415
1052.0,0.4133
1053.0,0.41
1054.0,0.411
1055.0,0.4112
1056.0,0.4098
1057.0,0.4086
1058.0,0.3986
1059.0,0.3991
1060.0,0.3985
1061.0,0.398
1062.0,0.4002
1063.0,0.3963
1064.0,0.4009
1065.0,0.3981
1066.0,0.3902
1067.0,0.3953
1068.0,0.3867
1069.0,0.3747
1070.0,0.3875
1071.0,0.3933
1072.0,0.3889
1073.0,0.3833
1074.0,0.3929
1075.0,0.374
1076.0,0.3926
1077.0,0.3861
1078.0,0.3789
1079.0,0.3862
1080.0,0.3801
1081.0,0.3683
1082.0,0.3735
1083.0,0.3745
1084.0,0.3676
1085.0,0.3809
1086.0,0.3488
1087.0,0.3591
1088.0,0.3743
1089.0,0.3635
1090.0,0.356
1091.0,0.3732
1092.0,0.3721
1093.0,0.3178
1094.0,0.3408
1095.0,0.3308
1096.0,0.3174
1097.0,0.3635
1098.0,0.3127
1099.0,0.3258
1100.0,0.3039
1101.0,0.3074
1102.0,0.2942
1103.0,0.2918
1104.0,0.2921
1105.0,0.3186
1106.0,0.2476
1107.0,0.3033
1108.0,0.2594
1109.0,0.2594
1110.0,0.301
1111.0,0.2073
1112.0,0.2573
1113.0,0.167
1114.0,0.1863
1115.0,0.1545
1116.0,0.1253
1117.0,0.04813
1118.0,0.1356
1119.0,0.06897
1120.0,0.0869
1121.0,0.1143
1122.0,0.04954
1123.0,0.07847
1124.0,0.06625
1125.0,0.08603
1126.0,0.03136
1127.0,0.09692
1128.0,0.05951
1129.0,0.06292
1130.0,0.04203
1131.0,0.1802
1132.0,0.142
1133.0,0.09195
1134.0,0.02465
1135.0,0.009178
1136.0,0.0774
1137.0,0.1776
1138.0,0.1255
1139.0,0.1835
1140.0,0.1547
1141.0,0.1193
1142.0,0.1364
1143.0,0.1922
1144.0,0.06899
1145.0,0.08863
1146.0,0.09562
1147.0,0.0351
1148.0,0.1664
1149.0,0.134
1150.0,0.07406
1151.0,0.1246
1152.0,0.152
1153.0,0.1471
1154.0,0.08616
1155.0,0.1914
1156.0,0.1731
1157.0,0.1931
1158.0,0.191
1159.0,0.205
1160.0,0.1764
1161.0,0.2149
1162.0,0.2162
1163.0,0.2878
1164.0,0.2484
1165.0,0.2358
1166.0,0.2331
1167.0,0.2531
1168.0,0.2563
1169.0,0.2618
1170.0,0.2832
1171.0,0.2763
1172.0,0.2805
1173.0,0.2826
1174.0,0.2055
1175.0,0.2754
1176.0,0.3009
1177.0,0.2901
1178.0,0.2207
1179.0,0.3033
1180.0,0.2728
1181.0,0.2813
1182.0,0.1973
1183.0,0.2766
1184.0,0.2602
1185.0,0.252
1186.0,0.2957
1187.0,0.2826
1188.0,0.2009
1189.0,0.2635
1190.0,0.2889
1191.0,0.2761
1192.0,0.2928
1193.0,0.2812
1194.0,0.2894
1195.0,0.2749
1196.0,0.2655
1197.0,0.2889
1198.0,0.2652
1199.0,0.2284
1200.0,0.2777
1201.0,0.2688
1202.0,0.2667
1203.0,0.2645
1204.0,0.2329
1205.0,0.272
1206.0,0.2989
1207.0,0.2663
1208.0,0.2612
1209.0,0.2664
1210.0,0.2769
1211.0,0.2648
1212.0,0.2629
1213.0,0.2897
1214.0,0.2686
1215.0,0.2637
1216.0,0.2887
1217.0,0.2817
1218.0,0.2864
1219.0,0.2832
1220.0,0.2866
1221.0,0.2892
1222.0,0.282
1223.0,0.2796
1224.0,0.2783
1225.0,0.2874
1226.0,0.2889
1227.0,0.268
1228.0,0.2901
1229.0,0.289
1230.0,0.2843
1231.0,0.2914
1232.0,0.2897
1233.0,0.281
1234.0,0.2909
1235.0,0.2893
1236.0,0.2912
1237.0,0.2877
1238.0,0.2903
1239.0,0.2865
1240.0,0.2876
1241.0,0.2865
1242.0,0.2856
1243.0,0.2833
1244.0,0.2854
1245.0,0.2866
1246.0,0.2849
1247.0,0.2839
1248.0,0.2838
1249.0,0.2846
1250.0,0.2829
1251.0,0.2795
1252.0,0.2793
1253.0,0.2775
1254.0,0.275
1255.0,0.2791
1256.0,0.272
1257.0,0.2707
1258.0,0.2752
1259.0,0.2664
1260.0,0.2676
1261.0,0.2541
1262.0,0.2473
1263.0,0.2478
1264.0,0.2305
1265.0,0.2461
1266.0,0.2379
1267.0,0.2414
1268.0,0.2301
1269.0,0.1508
1270.0,0.2408
1271.0,0.2531
1272.0,0.2537
1273.0,0.2512
1274.0,0.2518
1275.0,0.2551
1276.0,0.2573
1277.0,0.2587
1278.0,0.263
1279.0,0.2607
1280.0,0.2574
1281.0,0.2453
1282.0,0.2359
1283.0,0.2542
1284.0,0.2603
1285.0,0.262
1286.0,0.2653
1287.0,0.2617
1288.0,0.2615
1289.0,0.2541
1290.0,0.2591
1291.0,0.2625
1292.0,0.2484
1293.0,0.2579
1294.0,0.2561
1295.0,0.2553
1296.0,0.2449
1297.0,0.2325
1298.0,0.2485
1299.0,0.258
1300.0,0.2214
1301.0,0.2276
1302.0,0.2477
1303.0,0.2182
1304.0,0.1889
1305.0,0.2428
1306.0,0.243
1307.0,0.192
1308.0,0.2181
1309.0,0.2414
1310.0,0.1885
1311.0,0.2097
1312.0,0.2045
1313.0,0.201
1314.0,0.1809
1315.0,0.1792
1316.0,0.2069
1317.0,0.1963
1318.0,0.2122
1319.0,0.1691
1320.0,0.1631
1321.0,0.1889
1322.0,0.1913
1323.0,0.1466
1324.0,0.1658
1325.0,0.2041
1326.0,0.1768
1327.0,0.1691
1328.0,0.1466
1329.0,0.1123
1330.0,0.1451
1331.0,0.09013
1332.0,0.0922
1333.0,0.1277
1334.0,0.107
1335.0,0.146
1336.0,0.1168
1337.0,0.104
1338.0,0.1125
1339.0,0.1116
1340.0,0.1079
1341.0,0.1069
1342.0,0.1121
1343.0,0.07901
1344.0,0.04717
1345.0,0.06779
1346.0,0.03568
1347.0,0.03662
1348.0,0.002753
1349.0,0.009475
1350.0,0.009547
1351.0,0.002649
1352.0,0.000824
1353.0,4.938e-05
1354.0,0.0001537
1355.0,1.718e-06
1356.0,2.443e-05
1357.0,3.705e-05
1358.0,2.008e-06
1359.0,3.229e-07
1360.0,1.002e-06
1361.0,1.886e-09
1362.0,6.495e-12
1363.0,1.452e-06
1364.0,6.131e-07
1365.0,3.016e-12
1366.0,5.948e-06
1367.0,2.348e-06
1368.0,4.068e-14
1369.0,2.328e-07
1370.0,1.272e-07
1371.0,8.231e-09
1372.0,1.293e-06
1373.0,2.209e-05
1374.0,9.176e-05
1375.0,0.0001671
1376.0,0.0001375
1377.0,6.467e-05
1378.0,0.0005999
1379.0,2.733e-05
1380.0,4.211e-05
1381.0,1.184e-06
1382.0,1.2e-06
1383.0,1.988e-08
1384.0,2.741e-07
1385.0,1.014e-06
1386.0,1.148e-06
1387.0,0.0001015
1388.0,2.032e-06
1389.0,0.0003052
1390.0,0.0002628
1391.0,0.00018
1392.0,1.222e-05
1393.0,6.092e-05
1394.0,3.762e-05
1395.0,3.177e-07
1396.0,2.537e-09
1397.0,2.541e-05
1398.0,0.0006814
1399.0,0.0004316
1400.0,1.254e-09
1401.0,4.344e-09
1402.0,0.001036
1403.0,0.001338
1404.0,0.0004129
1405.0,1.69e-07
1406.0,0.001125
1407.0,9.669e-05
1408.0,0.000913
1409.0,0.0003328
1410.0,0.0002537
1411.0,0.001171
1412.0,0.00152
1413.0,0.01397
1414.0,0.0001983
1415.0,9.904e-05
1416.0,0.02165
1417.0,0.006955
1418.0,0.007969
1419.0,0.001256
1420.0,0.004892
1421.0,0.005301
1422.0,0.02816
1423.0,0.005561
1424.0,0.01033
1425.0,0.01534
1426.0,0.01705
1427.0,0.03053
1428.0,0.002614
1429.0,0.0232
1430.0,0.03864
1431.0,0.04223
1432.0,0.002068
1433.0,0.02715
1434.0,0.01396
1435.0,0.01445
1436.0,0.02712
1437.0,0.02077
1438.0,0.008986
1439.0,0.03654
1440.0,0.0274
1441.0,0.02124
1442.0,0.0235
1443.0,0.02897
1444.0,0.0399
1445.0,0.03164
1446.0,0.01436
1447.0,0.0226
1448.0,0.07364
1449.0,0.06433
1450.0,0.01674
