interpolation:linear
wavelength,value
280.0,3.956e-21
280.5,1.229e-19
281.0,6.463e-19
281.5,4.302e-19
282.0,1.195e-18
282.5,3.115e-18
283.0,1.001e-17
283.5,1.635e-17
284.0,2.63e-16
284.5,7.555e-16
285.0,1.659e-15
285.5,8.193e-15
286.0,3.288e-14
286.5,1.455e-13
287.0,4.12e-13
287.5,1.558e-12
288.0,4.039e-12
288.5,1.369e-11
289.0,3.95e-11
289.5,1.268e-10
290.0,3.655e-10
290.5,7.654e-10
291.0,1.686e-09
291.5,5.24e-09
292.0,1.147e-08
292.5,1.749e-08
293.0,4.173e-08
293.5,1.177e-07
294.0,2.049e-07
294.5,2.658e-07
295.0,5.011e-07
295.5,1.352e-06
296.0,2.709e-06
296.5,3.947e-06
297.0,5.538e-06
297.5,1.574e-05
298.0,2.615e-05
298.5,2.748e-05
299.0,6.334e-05
299.5,0.0001141
300.0,0.0001319
300.5,0.0002018
301.0,0.0004028
301.5,0.0007139
302.0,0.0006516
302.5,0.00128
303.0,0.002313
303.5,0.002924
304.0,0.002753
304.5,0.004129
305.0,0.006293
305.5,0.007228
306.0,0.007004
306.5,0.008733
307.0,0.01299
307.5,0.01729
308.0,0.01827
308.5,0.02159
309.0,0.02122
309.5,0.02426
310.0,0.02436
310.5,0.03945
311.0,0.0495
311.5,0.04778
312.0,0.04772
312.5,0.05801
313.0,0.0629
313.5,0.06112
314.0,0.07633
314.5,0.06755
315.0,0.08875
315.5,0.07434
316.0,0.06481
316.5,0.09292
317.0,0.1154
317.5,0.1202
318.0,0.09364
318.5,0.116
319.0,0.1375
319.5,0.1123
320.0,0.1358
320.5,0.1695
321.0,0.1505
321.5,0.1443
322.0,0.1543
322.5,0.1342
323.0,0.1334
323.5,0.1637
324.0,0.191
324.5,0.1941
325.0,0.1679
325.5,0.2156
326.0,0.2635
326.5,0.2636
327.0,0.2629
327.5,0.2541
328.0,0.2267
328.5,0.2378
329.0,0.2842
329.5,0.3224
330.0,0.3255
330.5,0.261
331.0,0.2661
331.5,0.2702
332.0,0.2914
332.5,0.2881
333.0,0.2874
333.5,0.2605
334.0,0.267
334.5,0.3077
335.0,0.2889
335.5,0.3375
336.0,0.2336
336.5,0.2737
337.0,0.2247
337.5,0.2797
338.0,0.2728
338.5,0.3149
339.0,0.3117
339.5,0.2999
340.0,0.3525
340.5,0.3178
341.0,0.31
341.5,0.2847
342.0,0.3403
342.5,0.3184
343.0,0.3503
343.5,0.3299
344.0,0.2439
344.5,0.2463
345.0,0.3261
345.5,0.333
346.0,0.2831
346.5,0.3206
347.0,0.3443
347.5,0.2784
348.0,0.3175
348.5,0.3174
349.0,0.2945
349.5,0.2917
350.0,0.3608
350.5,0.3807
351.0,0.3402
351.5,0.3307
352.0,0.3552
352.5,0.2773
353.0,0.3494
353.5,0.3736
354.0,0.388
354.5,0.3935
355.0,0.3923
355.5,0.3545
356.0,0.371
356.5,0.3168
357.0,0.2618
357.5,0.3206
358.0,0.2541
358.5,0.2172
359.0,0.3039
359.5,0.3873
360.0,0.4106
360.5,0.3283
361.0,0.2993
361.5,0.3448
362.0,0.2983
362.5,0.413
363.0,0.371
363.5,0.3419
364.0,0.4182
364.5,0.3576
365.0,0.3642
365.5,0.4573
366.0,0.4846
366.5,0.4555
367.0,0.4437
367.5,0.4605
368.0,0.4031
368.5,0.4069
369.0,0.4395
369.5,0.4686
370.0,0.4997
370.5,0.3879
371.0,0.4146
371.5,0.5188
372.0,0.3444
372.5,0.4131
373.0,0.4203
373.5,0.2735
374.0,0.3976
374.5,0.3293
375.0,0.3202
375.5,0.4782
376.0,0.3965
376.5,0.4109
377.0,0.4352
377.5,0.5093
378.0,0.5522
378.5,0.522
379.0,0.4308
379.5,0.3936
380.0,0.4093
380.5,0.4959
381.0,0.4971
381.5,0.3942
382.0,0.3502
382.5,0.2986
383.0,0.2766
383.5,0.2664
384.0,0.294
384.5,0.4325
385.0,0.429
385.5,0.3997
386.0,0.3424
386.5,0.4499
387.0,0.3739
387.5,0.4201
388.0,0.3879
388.5,0.3836
389.0,0.4141
389.5,0.5017
390.0,0.5036
390.5,0.4636
391.0,0.5459
391.5,0.5569
392.0,0.4691
392.5,0.4201
393.0,0.2338
393.5,0.17
394.0,0.346
394.5,0.4401
395.0,0.5371
395.5,0.5457
396.0,0.4732
396.5,0.2767
397.0,0.2077
397.5,0.4225
398.0,0.5918
398.5,0.6118
399.0,0.6627
399.5,0.6607
400.0,0.6861
401.0,0.6957
402.0,0.7343
403.0,0.6979
404.0,0.6874
405.0,0.6875
406.0,0.6767
407.0,0.666
408.0,0.6922
409.0,0.7411
410.0,0.6478
411.0,0.702
412.0,0.7543
413.0,0.7357
414.0,0.745
415.0,0.7473
416.0,0.7606
417.0,0.7421
418.0,0.7286
419.0,0.7384
420.0,0.7354
421.0,0.7695
422.0,0.7316
423.0,0.7149
424.0,0.7563
425.0,0.7551
426.0,0.7358
427.0,0.7222
428.0,0.7037
429.0,0.6668
430.0,0.5837
431.0,0.5786
432.0,0.7473
433.0,0.7516
434.0,0.698
435.0,0.7291
436.0,0.8217
437.0,0.8109
438.0,0.7386
439.0,0.7639
440.0,0.7884
441.0,0.8172
442.0,0.8766
443.0,0.8538
444.0,0.8726
445.0,0.8538
446.0,0.815
447.0,0.8813
448.0,0.8951
449.0,0.8989
450.0,0.9242
451.0,0.9586
452.0,0.9237
453.0,0.869
454.0,0.9073
455.0,0.913
456.0,0.9348
457.0,0.9505
458.0,0.918
459.0,0.9134
460.0,0.9159
461.0,0.937
462.0,0.9444
463.0,0.938
464.0,0.9227
465.0,0.9112
466.0,0.9202
467.0,0.9034
468.0,0.914
469.0,0.9189
470.0,0.8896
471.0,0.8885
472.0,0.9363
473.0,0.9241
474.0,0.9254
475.0,0.9332
476.0,0.9052
477.0,0.9077
478.0,0.933
479.0,0.9274
480.0,0.9293
481.0,0.9468
482.0,0.9519
483.0,0.9405
484.0,0.9214
485.0,0.8779
486.0,0.7676
487.0,0.8045
488.0,0.8826
489.0,0.8854
490.0,0.9315
491.0,0.9156
492.0,0.8646
493.0,0.893
494.0,0.902
495.0,0.9097
496.0,0.9153
497.0,0.9295
498.0,0.886
499.0,0.8973
500.0,0.8712
501.0,0.8551
502.0,0.8429
503.0,0.8771
504.0,0.8543
505.0,0.8853
506.0,0.9139
507.0,0.8697
508.0,0.8427
509.0,0.8665
510.0,0.862
511.0,0.8852
512.0,0.8949
513.0,0.8471
514.0,0.8413
515.0,0.8329
516.0,0.8309
517.0,0.7383
518.0,0.7762
519.0,0.8142
520.0,0.8438
521.0,0.8518
522.0,0.8525
523.0,0.8371
524.0,0.867
525.0,0.8771
526.0,0.8378
527.0,0.7894
528.0,0.8348
529.0,0.8799
530.0,0.8672
531.0,0.88
532.0,0.8497
533.0,0.8248
534.0,0.8493
535.0,0.8679
536.0,0.8759
537.0,0.8414
538.0,0.8563
539.0,0.8491
540.0,0.8141
541.0,0.8193
542.0,0.8449
543.0,0.8361
544.0,0.8505
545.0,0.8479
546.0,0.8515
547.0,0.8512
548.0,0.8411
549.0,0.8437
550.0,0.8537
551.0,0.8434
552.0,0.8493
553.0,0.834
554.0,0.854
555.0,0.8557
556.0,0.8445
557.0,0.8182
558.0,0.812
559.0,0.7967
560.0,0.8066
561.0,0.817
562.0,0.811
563.0,0.833
564.0,0.8102
565.0,0.8032
566.0,0.7913
567.0,0.8062
568.0,0.7987
569.0,0.7791
570.0,0.779
571.0,0.7745
572.0,0.7927
573.0,0.8011
574.0,0.7984
575.0,0.7834
576.0,0.7763
577.0,0.7848
578.0,0.7732
579.0,0.7765
580.0,0.7917
581.0,0.7961
582.0,0.8114
583.0,0.8136
584.0,0.8209
585.0,0.8009
586.0,0.7844
587.0,0.8014
588.0,0.7812
589.0,0.6907
590.0,0.7224
591.0,0.7653
592.0,0.7552
593.0,0.767
594.0,0.7614
595.0,0.7421
596.0,0.7725
597.0,0.7639
598.0,0.7623
599.0,0.7631
600.0,0.7645
601.0,0.7585
602.0,0.7534
603.0,0.766
604.0,0.7787
605.0,0.7747
606.0,0.7717
607.0,0.7795
608.0,0.771
609.0,0.7724
610.0,0.767
611.0,0.7711
612.0,0.7689
613.0,0.7593
614.0,0.749
615.0,0.7654
616.0,0.7403
617.0,0.7389
618.0,0.7674
619.0,0.7596
620.0,0.7644
621.0,0.7651
622.0,0.756
623.0,0.7444
624.0,0.7318
625.0,0.7301
626.0,0.7409
627.0,0.7489
628.0,0.6961
629.0,0.7301
630.0,0.7131
631.0,0.7304
632.0,0.7218
633.0,0.7442
634.0,0.7373
635.0,0.749
636.0,0.7393
637.0,0.7516
638.0,0.7591
639.0,0.7507
640.0,0.7435
641.0,0.7432
642.0,0.74
643.0,0.7499
644.0,0.7476
645.0,0.7488
646.0,0.7309
647.0,0.7213
648.0,0.7219
649.0,0.7079
650.0,0.7125
651.0,0.7436
652.0,0.7114
653.0,0.7338
654.0,0.7257
655.0,0.6981
656.0,0.6191
657.0,0.6358
658.0,0.7129
659.0,0.7182
660.0,0.7213
661.0,0.7264
662.0,0.7276
663.0,0.7133
664.0,0.7221
665.0,0.723
666.0,0.7236
667.0,0.7231
668.0,0.7235
669.0,0.7348
670.0,0.7317
671.0,0.7316
672.0,0.7254
673.0,0.7363
674.0,0.7336
675.0,0.727
676.0,0.732
677.0,0.7248
678.0,0.7269
679.0,0.7152
680.0,0.721
681.0,0.7163
682.0,0.7153
683.0,0.714
684.0,0.7104
685.0,0.7166
686.0,0.7122
687.0,0.4585
688.0,0.5441
689.0,0.5463
690.0,0.5753
691.0,0.6081
692.0,0.6323
693.0,0.627
694.0,0.6218
695.0,0.6493
696.0,0.6503
697.0,0.6923
698.0,0.6814
699.0,0.6637
700.0,0.6556
701.0,0.6485
702.0,0.6535
703.0,0.6548
704.0,0.6766
705.0,0.6776
706.0,0.6774
707.0,0.678
708.0,0.6794
709.0,0.681
710.0,0.6807
711.0,0.6799
712.0,0.6781
713.0,0.6711
714.0,0.6737
715.0,0.6518
716.0,0.6521
717.0,0.5603
718.0,0.5139
719.0,0.4702
720.0,0.4921
721.0,0.5464
722.0,0.6286
723.0,0.5834
724.0,0.5236
725.0,0.5144
726.0,0.5388
727.0,0.5478
728.0,0.5129
729.0,0.534
730.0,0.5649
731.0,0.54
732.0,0.5796
733.0,0.6154
734.0,0.6306
735.0,0.6172
736.0,0.6164
737.0,0.6188
738.0,0.6297
739.0,0.6173
740.0,0.6338
741.0,0.6277
742.0,0.6285
743.0,0.6446
744.0,0.6429
745.0,0.6432
746.0,0.6461
747.0,0.6476
748.0,0.6462
749.0,0.6389
750.0,0.6385
751.0,0.632
752.0,0.6348
753.0,0.638
754.0,0.6394
755.0,0.6358
756.0,0.6355
757.0,0.6364
758.0,0.6285
759.0,0.6149
760.0,0.08864
761.0,0.0441
762.0,0.2984
763.0,0.1404
764.0,0.2186
765.0,0.2984
766.0,0.3739
767.0,0.4798
768.0,0.5602
769.0,0.5735
770.0,0.5946
771.0,0.6002
772.0,0.6017
773.0,0.606
774.0,0.6031
775.0,0.5985
776.0,0.6058
777.0,0.5978
778.0,0.5942
779.0,0.5947
780.0,0.5914
781.0,0.592
782.0,0.5957
783.0,0.5854
784.0,0.5882
785.0,0.5838
786.0,0.5902
787.0,0.5792
788.0,0.5717
789.0,0.5714
790.0,0.5553
791.0,0.561
792.0,0.557
793.0,0.5479
794.0,0.5582
795.0,0.5674
796.0,0.5487
797.0,0.5493
798.0,0.5666
799.0,0.5627
800.0,0.5526
801.0,0.5506
802.0,0.549
803.0,0.5447
804.0,0.5456
805.0,0.5442
806.0,0.5602
807.0,0.5533
808.0,0.5538
809.0,0.5429
810.0,0.5382
811.0,0.5382
812.0,0.5219
813.0,0.5105
814.0,0.4463
815.0,0.4437
816.0,0.4126
817.0,0.4204
818.0,0.404
819.0,0.4542
820.0,0.4268
821.0,0.5024
822.0,0.4875
823.0,0.326
824.0,0.472
825.0,0.4936
826.0,0.4738
827.0,0.5011
828.0,0.4216
829.0,0.4711
830.0,0.4646
831.0,0.4663
832.0,0.4514
833.0,0.4819
834.0,0.4638
835.0,0.5119
836.0,0.4884
837.0,0.5134
838.0,0.4967
839.0,0.5059
840.0,0.5172
841.0,0.5095
842.0,0.5111
843.0,0.5114
844.0,0.504
845.0,0.5214
846.0,0.5192
847.0,0.5097
848.0,0.5063
849.0,0.4919
850.0,0.4713
851.0,0.4987
852.0,0.4953
853.0,0.477
854.0,0.4117
855.0,0.4526
856.0,0.4944
857.0,0.5057
858.0,0.5018
859.0,0.5024
860.0,0.5034
861.0,0.5006
862.0,0.5085
863.0,0.5205
864.0,0.4945
865.0,0.4902
866.0,0.4408
867.0,0.46
868.0,0.5006
869.0,0.4902
870.0,0.5042
871.0,0.4973
872.0,0.4956
873.0,0.4946
874.0,0.4887
875.0,0.4788
876.0,0.4838
877.0,0.4887
878.0,0.4939
879.0,0.4863
880.0,0.4759
881.0,0.4686
882.0,0.4787
883.0,0.4804
884.0,0.4781
885.0,0.4817
886.0,0.4586
887.0,0.4639
888.0,0.4704
889.0,0.4763
890.0,0.4717
891.0,0.4712
892.0,0.4569
893.0,0.4418
894.0,0.4246
895.0,0.3992
896.0,0.3753
897.0,0.3198
898.0,0.3504
899.0,0.2635
900.0,0.3604
901.0,0.2762
902.0,0.3283
903.0,0.3301
904.0,0.4214
905.0,0.4061
906.0,0.3794
907.0,0.3042
908.0,0.3109
909.0,0.3386
910.0,0.2961
911.0,0.3178
912.0,0.3328
913.0,0.3003
914.0,0.2984
915.0,0.3235
916.0,0.2731
917.0,0.3501
918.0,0.2798
919.0,0.3575
920.0,0.3631
921.0,0.3779
922.0,0.3353
923.0,0.3652
924.0,0.3433
925.0,0.3359
926.0,0.3394
927.0,0.3824
928.0,0.2734
929.0,0.2476
930.0,0.1914
931.0,0.1817
932.0,0.1275
933.0,0.102
934.0,0.05239
935.0,0.1057
936.0,0.06376
937.0,0.06439
938.0,0.08007
939.0,0.176
940.0,0.2141
941.0,0.1584
942.0,0.1854
943.0,0.1194
944.0,0.1281
945.0,0.164
946.0,0.08005
947.0,0.1638
948.0,0.1199
949.0,0.2226
950.0,0.05678
951.0,0.2199
952.0,0.1136
953.0,0.1497
954.0,0.1869
955.0,0.1518
956.0,0.1496
957.0,0.1134
958.0,0.2164
959.0,0.1681
960.0,0.1884
961.0,0.2145
962.0,0.2026
963.0,0.2361
964.0,0.2155
965.0,0.2355
966.0,0.2349
967.0,0.2336
968.0,0.3226
969.0,0.336
970.0,0.3074
971.0,0.356
972.0,0.3398
973.0,0.2917
974.0,0.2763
975.0,0.2884
976.0,0.2716
977.0,0.3136
978.0,0.296
979.0,0.3113
980.0,0.2919
981.0,0.3541
982.0,0.3371
983.0,0.3227
984.0,0.3667
985.0,0.3358
986.0,0.3742
987.0,0.3656
988.0,0.365
989.0,0.3737
990.0,0.3628
991.0,0.3747
992.0,0.377
993.0,0.3674
994.0,0.377
995.0,0.3767
996.0,0.3748
997.0,0.3755
998.0,0.3736
999.0,0.3723
1000.0,0.3694
1001.0,0.3744
1002.0,0.3629
1003.0,0.3677
1004.0,0.3584
1005.0,0.3457
1006.0,0.359
1007.0,0.3667
1008.0,0.3645
1009.0,0.3623
1010.0,0.3606
1011.0,0.3649
1012.0,0.3615
1013.0,0.364
1014.0,0.3615
1015.0,0.3591
1016.0,0.3574
1017.0,0.3583
1018.0,0.3571
1019.0,0.349
1020.0,0.3551
1021.0,0.3547
1022.0,0.3518
1023.0,0.3555
1024.0,0.3504
1025.0,0.3554
1026.0,0.3538
1027.0,0.353
1028.0,0.3522
1029.0,0.348
1030.0,0.3505
1031.0,0.3491
1032.0,0.3481
1033.0,0.3429
1034.0,0.3429
1035.0,0.344
1036.0,0.3457
1037.0,0.3401
1038.0,0.3416
1039.0,0.3413
1040.0,0.34
1041.0,0.3413
1042.0,0.3389
1043.0,0.3378
1044.0,0.3389
1045.0,0.3343
1046.0,0.3306
1047.0,0.3335
1048.0,0.3353
1049.0,0.3341
1050.0,0.3325
1051.0,0.332
1052.0,0.3306
1053.0,0.3279
1054.0,0.3286
1055.0,0.3287
1056.0,0.3274
1057.0,0.3264
1058.0,0.3183
1059.0,0.3185
1060.0,0.318
1061.0,0.3176
1062.0,0.3192
1063.0,0.316
1064.0,0.3198
1065.0,0.3173
1066.0,0.3111
1067.0,0.3151
1068.0,0.3081
1069.0,0.2987
1070.0,0.3087
1071.0,0.3139
1072.0,0.31
1073.0,0.3056
1074.0,0.3139
1075.0,0.2969
1076.0,0.3136
1077.0,0.3073
1078.0,0.3012
1079.0,0.3088
1080.0,0.3026
1081.0,0.2923
1082.0,0.298
1083.0,0.2992
1084.0,0.2912
1085.0,0.3034
1086.0,0.275
1087.0,0.2852
1088.0,0.2987
1089.0,0.2883
1090.0,0.2812
1091.0,0.2974
1092.0,0.2969
1093.0,0.2483
1094.0,0.2712
1095.0,0.2591
1096.0,0.2471
1097.0,0.29
1098.0,0.2428
1099.0,0.2538
1100.0,0.2345
1101.0,0.2379
1102.0,0.2263
1103.0,0.2234
1104.0,0.2238
1105.0,0.2477
1106.0,0.1838
1107.0,0.2342
1108.0,0.1951
1109.0,0.1961
1110.0,0.2316
1111.0,0.1526
1112.0,0.1949
1113.0,0.1194
1114.0,0.1339
1115.0,0.1108
1116.0,0.08574
1117.0,0.02868
1118.0,0.09418
1119.0,0.04438
1120.0,0.05565
1121.0,0.07527
1122.0,0.02967
1123.0,0.0504
1124.0,0.04251
1125.0,0.05603
1126.0,0.01754
1127.0,0.06339
1128.0,0.03575
1129.0,0.03822
1130.0,0.02441
1131.0,0.1256
1132.0,0.09751
1133.0,0.05888
1134.0,0.0135
1135.0,0.005155
1136.0,0.04809
1137.0,0.1224
1138.0,0.08565
1139.0,0.1335
1140.0,0.1093
1141.0,0.08144
1142.0,0.09484
1143.0,0.1371
1144.0,0.04515
1145.0,0.05684
1146.0,0.06127
1147.0,0.01954
1148.0,0.1185
1149.0,0.0929
1150.0,0.0489
1151.0,0.08496
1152.0,0.1066
1153.0,0.1055
1154.0,0.05487
1155.0,0.1392
1156.0,0.1242
1157.0,0.1413
1158.0,0.1397
1159.0,0.1521
1160.0,0.1285
1161.0,0.1614
1162.0,0.162
1163.0,0.2238
1164.0,0.1901
1165.0,0.1776
1166.0,0.1777
1167.0,0.1944
1168.0,0.1962
1169.0,0.2014
1170.0,0.2203
1171.0,0.2147
1172.0,0.2195
1173.0,0.2199
1174.0,0.1536
1175.0,0.2155
1176.0,0.2387
1177.0,0.2279
1178.0,0.1687
1179.0,0.2406
1180.0,0.2129
1181.0,0.2198
1182.0,0.149
1183.0,0.2169
1184.0,0.2023
1185.0,0.1944
1186.0,0.2332
1187.0,0.2213
1188.0,0.1511
1189.0,0.206
1190.0,0.228
1191.0,0.215
1192.0,0.2313
1193.0,0.2212
1194.0,0.2283
1195.0,0.2149
1196.0,0.2063
1197.0,0.2289
1198.0,0.2088
1199.0,0.1754
1200.0,0.2183
1201.0,0.2098
1202.0,0.2091
1203.0,0.2071
1204.0,0.1801
1205.0,0.2146
1206.0,0.2382
1207.0,0.2083
1208.0,0.2057
1209.0,0.2101
1210.0,0.2193
1211.0,0.2081
1212.0,0.2046
1213.0,0.2298
1214.0,0.2099
1215.0,0.2057
1216.0,0.2292
1217.0,0.2227
1218.0,0.2273
1219.0,0.2243
1220.0,0.2275
1221.0,0.23
1222.0,0.2239
1223.0,0.2216
1224.0,0.2199
1225.0,0.2285
1226.0,0.2303
1227.0,0.2115
1228.0,0.2317
1229.0,0.2304
1230.0,0.2263
1231.0,0.2333
1232.0,0.2319
1233.0,0.2231
1234.0,0.2333
1235.0,0.2317
1236.0,0.2335
1237.0,0.2299
1238.0,0.2327
1239.0,0.2297
1240.0,0.2306
1241.0,0.2293
1242.0,0.229
1243.0,0.2272
1244.0,0.2287
1245.0,0.2297
1246.0,0.2284
1247.0,0.2275
1248.0,0.2272
1249.0,0.228
1250.0,0.2266
1251.0,0.2235
1252.0,0.2237
1253.0,0.2216
1254.0,0.2192
1255.0,0.2234
1256.0,0.2166
1257.0,0.2153
1258.0,0.2198
1259.0,0.211
1260.0,0.2122
1261.0,0.1992
1262.0,0.1927
1263.0,0.193
1264.0,0.1769
1265.0,0.1918
1266.0,0.1838
1267.0,0.1875
1268.0,0.177
1269.0,0.1044
1270.0,0.1867
1271.0,0.1987
1272.0,0.1994
1273.0,0.1972
1274.0,0.198
1275.0,0.2011
1276.0,0.2032
1277.0,0.2048
1278.0,0.2092
1279.0,0.2073
1280.0,0.2047
1281.0,0.1955
1282.0,0.1887
1283.0,0.2032
1284.0,0.2079
1285.0,0.2094
1286.0,0.2124
1287.0,0.2088
1288.0,0.2088
1289.0,0.2016
1290.0,0.207
1291.0,0.21
1292.0,0.1961
1293.0,0.2056
1294.0,0.2041
1295.0,0.2028
1296.0,0.1928
1297.0,0.1818
1298.0,0.1969
1299.0,0.206
1300.0,0.1723
1301.0,0.178
1302.0,0.1963
1303.0,0.1703
1304.0,0.1432
1305.0,0.1922
1306.0,0.192
1307.0,0.1471
1308.0,0.1709
1309.0,0.1903
1310.0,0.1441
1311.0,0.1634
1312.0,0.1586
1313.0,0.1552
1314.0,0.1382
1315.0,0.1359
1316.0,0.1604
1317.0,0.1517
1318.0,0.1657
1319.0,0.1271
1320.0,0.1237
1321.0,0.1449
1322.0,0.1459
1323.0,0.1077
1324.0,0.1247
1325.0,0.1579
1326.0,0.1343
1327.0,0.1277
1328.0,0.1094
1329.0,0.0803
1330.0,0.1055
1331.0,0.06144
1332.0,0.06419
1333.0,0.08984
1334.0,0.07728
1335.0,0.1072
1336.0,0.08362
1337.0,0.07337
1338.0,0.07937
1339.0,0.07935
1340.0,0.07781
1341.0,0.07451
1342.0,0.0784
1343.0,0.05026
1344.0,0.03031
1345.0,0.04378
1346.0,0.02003
1347.0,0.02007
1348.0,0.001082
1349.0,0.004093
1350.0,0.00441
1351.0,0.0009063
1352.0,0.0002024
1353.0,8.566e-06
1354.0,3.358e-05
1355.0,1.814e-07
1356.0,4.137e-06
1357.0,6.326e-06
1358.0,2.184e-07
1359.0,2.026e-08
1360.0,8.962e-08
1361.0,5.289e-11
1362.0,1.119e-13
1363.0,1.092e-07
1364.0,4.505e-08
1365.0,2.758e-14
1366.0,5.177e-07
1367.0,2.266e-07
1368.0,1.087e-16
1369.0,1.663e-08
1370.0,7.207e-09
1371.0,3.52e-10
1372.0,1.252e-07
1373.0,3.099e-06
1374.0,1.66e-05
1375.0,2.976e-05
1376.0,3.047e-05
1377.0,1.355e-05
1378.0,0.0001401
1379.0,5.682e-06
1380.0,7.473e-06
1381.0,1.809e-07
1382.0,1.088e-07
1383.0,1.468e-09
1384.0,1.782e-08
1385.0,1.196e-07
1386.0,8.836e-08
1387.0,1.568e-05
1388.0,3.143e-07
1389.0,6.267e-05
1390.0,5.361e-05
1391.0,3.486e-05
1392.0,2.182e-06
1393.0,1.248e-05
1394.0,5.091e-06
1395.0,3.221e-08
1396.0,8.324e-11
1397.0,4.702e-06
1398.0,0.0001547
1399.0,9.873e-05
1400.0,3.027e-11
1401.0,1.593e-10
1402.0,0.0003379
1403.0,0.000408
1404.0,0.0001221
1405.0,1.403e-08
1406.0,0.0002968
1407.0,2.783e-05
1408.0,0.0002459
1409.0,7.345e-05
1410.0,6.401e-05
1411.0,0.0003618
1412.0,0.0005164
1413.0,0.006266
1414.0,5.131e-05
1415.0,2.335e-05
1416.0,0.01151
1417.0,0.003099
1418.0,0.00344
1419.0,0.0005188
1420.0,0.002093
1421.0,0.002285
1422.0,0.0151
1423.0,0.002832
1424.0,0.005422
1425.0,0.007773
1426.0,0.009306
1427.0,0.0182
1428.0,0.000999
1429.0,0.01305
1430.0,0.0237
1431.0,0.02641
1432.0,0.0007794
1433.0,0.01629
1434.0,0.00804
1435.0,0.007204
1436.0,0.01517
1437.0,0.01166
1438.0,0.004577
