interpolation:linear
wavelength,value
280.0,5.155e-22
280.5,1.042e-20
281.0,4.755e-20
281.5,1.018e-18
282.0,6.516e-18
282.5,2.16e-17
283.0,8.187e-17
283.5,1.421e-16
284.0,2.681e-15
284.5,8.017e-15
285.0,2.286e-14
285.5,1.537e-13
286.0,6.744e-13
286.5,3.452e-12
287.0,1.063e-11
287.5,4.375e-11
288.0,1.51e-10
288.5,5.643e-10
289.0,1.779e-09
289.5,6.226e-09
290.0,1.919e-08
290.5,4.244e-08
291.0,9.964e-08
291.5,3.186e-07
292.0,7.219e-07
292.5,1.049e-06
293.0,2.346e-06
293.5,6.028e-06
294.0,9.82e-06
294.5,1.915e-05
295.0,3.398e-05
295.5,7.13e-05
296.0,0.0001266
296.5,0.0001631
297.0,0.0002064
297.5,0.000501
298.0,0.0007257
298.5,0.0006842
299.0,0.001416
299.5,0.002105
300.0,0.002178
300.5,0.002963
301.0,0.004848
301.5,0.007055
302.0,0.005765
302.5,0.01053
303.0,0.01737
303.5,0.02075
304.0,0.01883
304.5,0.02569
305.0,0.03446
305.5,0.03658
306.0,0.03438
306.5,0.0408
307.0,0.05457
307.5,0.06583
308.0,0.06844
308.5,0.0771
309.0,0.07286
309.5,0.07795
310.0,0.07587
310.5,0.121
311.0,0.1479
311.5,0.1411
312.0,0.1333
312.5,0.1562
313.0,0.166
313.5,0.1641
314.0,0.196
314.5,0.1637
315.0,0.2127
315.5,0.1831
316.0,0.1523
316.5,0.2097
317.0,0.2604
317.5,0.2741
318.0,0.2078
318.5,0.2443
319.0,0.282
319.5,0.24
320.0,0.2918
320.5,0.3455
321.0,0.2928
321.5,0.2792
322.0,0.3136
322.5,0.272
323.0,0.2616
323.5,0.3108
324.0,0.3606
324.5,0.3712
325.0,0.3267
325.5,0.4085
326.0,0.4945
326.5,0.486
327.0,0.4875
327.5,0.4747
328.0,0.4332
328.5,0.4417
329.0,0.5164
329.5,0.5819
330.0,0.5901
330.5,0.4807
331.0,0.4926
331.5,0.4938
332.0,0.523
332.5,0.5128
333.0,0.5137
333.5,0.4714
334.0,0.4839
334.5,0.5492
335.0,0.5112
335.5,0.5968
336.0,0.4128
336.5,0.4855
337.0,0.4008
337.5,0.4996
338.0,0.4813
338.5,0.555
339.0,0.549
339.5,0.5279
340.0,0.6205
340.5,0.5584
341.0,0.5447
341.5,0.4998
342.0,0.597
342.5,0.5583
343.0,0.614
343.5,0.5781
344.0,0.4268
344.5,0.4312
345.0,0.5702
345.5,0.5818
346.0,0.4941
346.5,0.5593
347.0,0.6003
347.5,0.4853
348.0,0.5529
348.5,0.5524
349.0,0.5122
349.5,0.5069
350.0,0.6267
350.5,0.6608
351.0,0.5903
351.5,0.5738
352.0,0.6159
352.5,0.4804
353.0,0.6047
353.5,0.6464
354.0,0.6708
354.5,0.6802
355.0,0.6778
355.5,0.6121
356.0,0.6401
356.5,0.5465
357.0,0.4515
357.5,0.5527
358.0,0.4379
358.5,0.3741
359.0,0.5233
359.5,0.6669
360.0,0.7068
360.5,0.5648
361.0,0.5146
361.5,0.5922
362.0,0.5117
362.5,0.7079
363.0,0.6355
363.5,0.5851
364.0,0.7153
364.5,0.6112
365.0,0.6224
365.5,0.7809
366.0,0.8271
366.5,0.7768
367.0,0.7563
367.5,0.7847
368.0,0.6866
368.5,0.6926
369.0,0.7478
369.5,0.7968
370.0,0.8492
370.5,0.6589
371.0,0.7039
371.5,0.8805
372.0,0.5843
372.5,0.7004
373.0,0.7123
373.5,0.4633
374.0,0.6731
374.5,0.5573
375.0,0.5416
375.5,0.8086
376.0,0.6702
376.5,0.6945
377.0,0.7351
377.5,0.8598
378.0,0.9319
378.5,0.8808
379.0,0.7269
379.5,0.664
380.0,0.6903
380.5,0.8358
381.0,0.8373
381.5,0.6635
382.0,0.589
382.5,0.502
383.0,0.4646
383.5,0.4474
384.0,0.4934
384.5,0.7256
385.0,0.7194
385.5,0.6698
386.0,0.5735
386.5,0.7532
387.0,0.6258
387.5,0.7028
388.0,0.6488
388.5,0.6412
389.0,0.6921
389.5,0.8381
390.0,0.8409
390.5,0.7738
391.0,0.9106
391.5,0.9287
392.0,0.7822
392.5,0.7001
393.0,0.3894
393.5,0.283
394.0,0.5758
394.5,0.732
395.0,0.8931
395.5,0.9072
396.0,0.7864
396.5,0.4596
397.0,0.3448
397.5,0.7012
398.0,0.982
398.5,1.015
399.0,1.099
399.5,1.095
400.0,1.137
401.0,1.157
402.0,1.22
403.0,1.158
404.0,1.14
405.0,1.14
406.0,1.12
407.0,1.102
408.0,1.145
409.0,1.225
410.0,1.07
411.0,1.158
412.0,1.243
413.0,1.213
414.0,1.227
415.0,1.23
416.0,1.25
417.0,1.219
418.0,1.197
419.0,1.212
420.0,1.206
421.0,1.262
422.0,1.199
423.0,1.171
424.0,1.238
425.0,1.235
426.0,1.202
427.0,1.18
428.0,1.149
429.0,1.088
430.0,0.9515
431.0,0.9432
432.0,1.217
433.0,1.223
434.0,1.136
435.0,1.186
436.0,1.336
437.0,1.317
438.0,1.199
439.0,1.241
440.0,1.28
441.0,1.325
442.0,1.421
443.0,1.384
444.0,1.414
445.0,1.383
446.0,1.319
447.0,1.425
448.0,1.448
449.0,1.452
450.0,1.492
451.0,1.547
452.0,1.49
453.0,1.401
454.0,1.462
455.0,1.471
456.0,1.506
457.0,1.531
458.0,1.479
459.0,1.471
460.0,1.475
461.0,1.509
462.0,1.519
463.0,1.509
464.0,1.483
465.0,1.463
466.0,1.477
467.0,1.45
468.0,1.467
469.0,1.475
470.0,1.428
471.0,1.426
472.0,1.502
473.0,1.483
474.0,1.486
475.0,1.499
476.0,1.456
477.0,1.46
478.0,1.5
479.0,1.49
480.0,1.493
481.0,1.519
482.0,1.526
483.0,1.506
484.0,1.475
485.0,1.405
486.0,1.227
487.0,1.286
488.0,1.41
489.0,1.415
490.0,1.488
491.0,1.462
492.0,1.38
493.0,1.425
494.0,1.44
495.0,1.452
496.0,1.461
497.0,1.483
498.0,1.414
499.0,1.432
500.0,1.391
501.0,1.366
502.0,1.348
503.0,1.405
504.0,1.373
505.0,1.419
506.0,1.465
507.0,1.394
508.0,1.349
509.0,1.386
510.0,1.377
511.0,1.414
512.0,1.428
513.0,1.352
514.0,1.342
515.0,1.329
516.0,1.326
517.0,1.178
518.0,1.238
519.0,1.299
520.0,1.346
521.0,1.359
522.0,1.361
523.0,1.336
524.0,1.385
525.0,1.402
526.0,1.34
527.0,1.263
528.0,1.337
529.0,1.409
530.0,1.389
531.0,1.41
532.0,1.362
533.0,1.322
534.0,1.361
535.0,1.39
536.0,1.402
537.0,1.347
538.0,1.37
539.0,1.359
540.0,1.303
541.0,1.313
542.0,1.354
543.0,1.339
544.0,1.363
545.0,1.359
546.0,1.366
547.0,1.364
548.0,1.348
549.0,1.351
550.0,1.367
551.0,1.351
552.0,1.36
553.0,1.336
554.0,1.368
555.0,1.371
556.0,1.353
557.0,1.312
558.0,1.302
559.0,1.279
560.0,1.295
561.0,1.312
562.0,1.303
563.0,1.34
564.0,1.304
565.0,1.293
566.0,1.275
567.0,1.3
568.0,1.29
569.0,1.264
570.0,1.263
571.0,1.254
572.0,1.287
573.0,1.301
574.0,1.298
575.0,1.274
576.0,1.263
577.0,1.276
578.0,1.256
579.0,1.259
580.0,1.28
581.0,1.284
582.0,1.307
583.0,1.308
584.0,1.319
585.0,1.286
586.0,1.259
587.0,1.288
588.0,1.262
589.0,1.128
590.0,1.179
591.0,1.242
592.0,1.229
593.0,1.243
594.0,1.236
595.0,1.209
596.0,1.249
597.0,1.237
598.0,1.232
599.0,1.232
600.0,1.231
601.0,1.22
602.0,1.211
603.0,1.231
604.0,1.251
605.0,1.244
606.0,1.238
607.0,1.249
608.0,1.235
609.0,1.236
610.0,1.226
611.0,1.232
612.0,1.228
613.0,1.212
614.0,1.195
615.0,1.221
616.0,1.18
617.0,1.177
618.0,1.222
619.0,1.209
620.0,1.217
621.0,1.219
622.0,1.205
623.0,1.188
624.0,1.167
625.0,1.164
626.0,1.181
627.0,1.196
628.0,1.138
629.0,1.175
630.0,1.149
631.0,1.168
632.0,1.153
633.0,1.185
634.0,1.171
635.0,1.188
636.0,1.171
637.0,1.189
638.0,1.199
639.0,1.185
640.0,1.172
641.0,1.171
642.0,1.165
643.0,1.18
644.0,1.176
645.0,1.178
646.0,1.153
647.0,1.145
648.0,1.147
649.0,1.125
650.0,1.123
651.0,1.17
652.0,1.13
653.0,1.155
654.0,1.141
655.0,1.103
656.0,0.9743
657.0,1.0
658.0,1.119
659.0,1.126
660.0,1.13
661.0,1.138
662.0,1.141
663.0,1.118
664.0,1.129
665.0,1.129
666.0,1.129
667.0,1.127
668.0,1.127
669.0,1.144
670.0,1.139
671.0,1.138
672.0,1.128
673.0,1.145
674.0,1.14
675.0,1.129
676.0,1.137
677.0,1.125
678.0,1.128
679.0,1.11
680.0,1.118
681.0,1.111
682.0,1.11
683.0,1.107
684.0,1.102
685.0,1.111
686.0,1.105
687.0,0.8267
688.0,0.9231
689.0,0.925
690.0,0.9552
691.0,0.9887
692.0,1.012
693.0,1.005
694.0,0.997
695.0,1.027
696.0,1.029
697.0,1.077
698.0,1.061
699.0,1.045
700.0,1.032
701.0,1.024
702.0,1.028
703.0,1.03
704.0,1.057
705.0,1.059
706.0,1.056
707.0,1.056
708.0,1.058
709.0,1.057
710.0,1.058
711.0,1.056
712.0,1.051
713.0,1.042
714.0,1.045
715.0,1.016
716.0,1.017
717.0,0.9166
718.0,0.8485
719.0,0.7814
720.0,0.8206
721.0,0.884
722.0,0.9876
723.0,0.932
724.0,0.8537
725.0,0.845
726.0,0.8814
727.0,0.8863
728.0,0.8442
729.0,0.8632
730.0,0.9126
731.0,0.8774
732.0,0.9254
733.0,0.9668
734.0,0.9864
735.0,0.9678
736.0,0.9663
737.0,0.9706
738.0,0.9774
739.0,0.9584
740.0,0.9808
741.0,0.9695
742.0,0.969
743.0,0.9932
744.0,0.9895
745.0,0.989
746.0,0.9935
747.0,0.9955
748.0,0.9934
749.0,0.9819
750.0,0.9813
751.0,0.9713
752.0,0.9754
753.0,0.9802
754.0,0.9825
755.0,0.9769
756.0,0.9764
757.0,0.9778
758.0,0.9658
759.0,0.9509
760.0,0.2629
761.0,0.1653
762.0,0.5841
763.0,0.3563
764.0,0.4771
765.0,0.5845
766.0,0.6696
767.0,0.7991
768.0,0.8869
769.0,0.8979
770.0,0.9197
771.0,0.9234
772.0,0.9241
773.0,0.9303
774.0,0.9255
775.0,0.9183
776.0,0.9294
777.0,0.9171
778.0,0.9116
779.0,0.9123
780.0,0.9071
781.0,0.908
782.0,0.9136
783.0,0.8976
784.0,0.9018
785.0,0.8954
786.0,0.9056
787.0,0.8933
788.0,0.8839
789.0,0.8841
790.0,0.8659
791.0,0.8683
792.0,0.8612
793.0,0.8479
794.0,0.8568
795.0,0.8727
796.0,0.8531
797.0,0.8543
798.0,0.8724
799.0,0.8682
800.0,0.8549
801.0,0.8537
802.0,0.8511
803.0,0.8455
804.0,0.8459
805.0,0.8412
806.0,0.8615
807.0,0.8519
808.0,0.8522
809.0,0.8388
810.0,0.8338
811.0,0.8382
812.0,0.8193
813.0,0.8056
814.0,0.7263
815.0,0.7214
816.0,0.6742
817.0,0.6842
818.0,0.6626
819.0,0.7251
820.0,0.6891
821.0,0.7845
822.0,0.7656
823.0,0.5549
824.0,0.7503
825.0,0.772
826.0,0.749
827.0,0.7836
828.0,0.6833
829.0,0.7431
830.0,0.7355
831.0,0.7373
832.0,0.7182
833.0,0.7541
834.0,0.7337
835.0,0.7926
836.0,0.7669
837.0,0.7943
838.0,0.7731
839.0,0.7815
840.0,0.7977
841.0,0.788
842.0,0.7873
843.0,0.7844
844.0,0.7748
845.0,0.7991
846.0,0.7952
847.0,0.7796
848.0,0.7759
849.0,0.7539
850.0,0.7221
851.0,0.7657
852.0,0.7598
853.0,0.7305
854.0,0.6315
855.0,0.6927
856.0,0.7574
857.0,0.7736
858.0,0.7682
859.0,0.7684
860.0,0.7694
861.0,0.7653
862.0,0.7772
863.0,0.7956
864.0,0.7557
865.0,0.749
866.0,0.6735
867.0,0.7028
868.0,0.7648
869.0,0.7488
870.0,0.7702
871.0,0.7597
872.0,0.7569
873.0,0.7554
874.0,0.7464
875.0,0.7313
876.0,0.739
877.0,0.7464
878.0,0.7547
879.0,0.743
880.0,0.7271
881.0,0.7167
882.0,0.7324
883.0,0.7342
884.0,0.731
885.0,0.7365
886.0,0.7038
887.0,0.7099
888.0,0.7213
889.0,0.7278
890.0,0.7237
891.0,0.7214
892.0,0.7031
893.0,0.6843
894.0,0.6662
895.0,0.6372
896.0,0.6041
897.0,0.5298
898.0,0.5717
899.0,0.4485
900.0,0.5789
901.0,0.4694
902.0,0.533
903.0,0.5439
904.0,0.6612
905.0,0.642
906.0,0.6037
907.0,0.5065
908.0,0.5144
909.0,0.5493
910.0,0.4997
911.0,0.5244
912.0,0.5447
913.0,0.5077
914.0,0.501
915.0,0.5413
916.0,0.463
917.0,0.5717
918.0,0.475
919.0,0.5787
920.0,0.5778
921.0,0.599
922.0,0.5455
923.0,0.5782
924.0,0.5594
925.0,0.5477
926.0,0.5535
927.0,0.6101
928.0,0.4749
929.0,0.4409
930.0,0.3587
931.0,0.3376
932.0,0.2555
933.0,0.2147
934.0,0.1327
935.0,0.2138
936.0,0.1428
937.0,0.1462
938.0,0.1759
939.0,0.3272
940.0,0.3851
941.0,0.3024
942.0,0.3424
943.0,0.2345
944.0,0.2389
945.0,0.3098
946.0,0.1703
947.0,0.3143
948.0,0.2332
949.0,0.408
950.0,0.1339
951.0,0.3996
952.0,0.2317
953.0,0.288
954.0,0.341
955.0,0.29
956.0,0.2764
957.0,0.2338
958.0,0.3738
959.0,0.3099
960.0,0.3468
961.0,0.3795
962.0,0.3605
963.0,0.407
964.0,0.3759
965.0,0.4044
966.0,0.4067
967.0,0.4057
968.0,0.5152
969.0,0.5399
970.0,0.5001
971.0,0.56
972.0,0.538
973.0,0.4809
974.0,0.4585
975.0,0.4708
976.0,0.4536
977.0,0.5034
978.0,0.4836
979.0,0.5023
980.0,0.4751
981.0,0.5561
982.0,0.5362
983.0,0.5175
984.0,0.5681
985.0,0.534
986.0,0.5751
987.0,0.567
988.0,0.566
989.0,0.5716
990.0,0.5623
991.0,0.5737
992.0,0.5767
993.0,0.5669
994.0,0.5762
995.0,0.575
996.0,0.5729
997.0,0.5735
998.0,0.571
999.0,0.5688
1000.0,0.5655
1001.0,0.5717
1002.0,0.559
1003.0,0.5618
1004.0,0.5489
1005.0,0.5277
1006.0,0.5489
1007.0,0.5602
1008.0,0.5577
1009.0,0.5553
1010.0,0.5533
1011.0,0.5573
1012.0,0.553
1013.0,0.5557
1014.0,0.5519
1015.0,0.5483
1016.0,0.5459
1017.0,0.5474
1018.0,0.545
1019.0,0.5345
1020.0,0.5423
1021.0,0.5413
1022.0,0.5375
1023.0,0.5433
1024.0,0.5374
1025.0,0.5425
1026.0,0.5405
1027.0,0.5392
1028.0,0.5382
1029.0,0.5319
1030.0,0.5352
1031.0,0.5332
1032.0,0.5315
1033.0,0.5235
1034.0,0.5235
1035.0,0.5251
1036.0,0.528
1037.0,0.5194
1038.0,0.5217
1039.0,0.5215
1040.0,0.5194
1041.0,0.5216
1042.0,0.5179
1043.0,0.5163
1044.0,0.5182
1045.0,0.5113
1046.0,0.5057
1047.0,0.5103
1048.0,0.5132
1049.0,0.5114
1050.0,0.5092
1051.0,0.5086
1052.0,0.5066
1053.0,0.5027
1054.0,0.504
1055.0,0.5044
1056.0,0.5028
1057.0,0.5014
1058.0,0.4892
1059.0,0.49
1060.0,0.4893
1061.0,0.4888
1062.0,0.4916
1063.0,0.4869
1064.0,0.4926
1065.0,0.4894
1066.0,0.4794
1067.0,0.4858
1068.0,0.4754
1069.0,0.4605
1070.0,0.4765
1071.0,0.4828
1072.0,0.4781
1073.0,0.471
1074.0,0.482
1075.0,0.4611
1076.0,0.4818
1077.0,0.475
1078.0,0.4667
1079.0,0.4736
1080.0,0.4678
1081.0,0.4542
1082.0,0.4588
1083.0,0.4596
1084.0,0.454
1085.0,0.4685
1086.0,0.4327
1087.0,0.4427
1088.0,0.4597
1089.0,0.4486
1090.0,0.4409
1091.0,0.459
1092.0,0.4572
1093.0,0.3971
1094.0,0.4194
1095.0,0.4122
1096.0,0.3976
1097.0,0.4464
1098.0,0.3923
1099.0,0.4077
1100.0,0.3835
1101.0,0.387
1102.0,0.3721
1103.0,0.3705
1104.0,0.3707
1105.0,0.3993
1106.0,0.3221
1107.0,0.3825
1108.0,0.3343
1109.0,0.333
1110.0,0.3803
1111.0,0.2717
1112.0,0.3296
1113.0,0.2244
1114.0,0.2489
1115.0,0.2068
1116.0,0.1743
1117.0,0.07479
1118.0,0.186
1119.0,0.1006
1120.0,0.1267
1121.0,0.1628
1122.0,0.07583
1123.0,0.1142
1124.0,0.09653
1125.0,0.1239
1126.0,0.05056
1127.0,0.1391
1128.0,0.09115
1129.0,0.09539
1130.0,0.06658
1131.0,0.2456
1132.0,0.1961
1133.0,0.1339
1134.0,0.0407
1135.0,0.01499
1136.0,0.1152
1137.0,0.2439
1138.0,0.1742
1139.0,0.242
1140.0,0.209
1141.0,0.1655
1142.0,0.1865
1143.0,0.2575
1144.0,0.09932
1145.0,0.1289
1146.0,0.1391
1147.0,0.05682
1148.0,0.223
1149.0,0.1837
1150.0,0.1065
1151.0,0.173
1152.0,0.2063
1153.0,0.1963
1154.0,0.1268
1155.0,0.2527
1156.0,0.231
1157.0,0.2544
1158.0,0.2513
1159.0,0.2665
1160.0,0.2335
1161.0,0.2774
1162.0,0.2795
1163.0,0.3605
1164.0,0.3155
1165.0,0.3034
1166.0,0.2974
1167.0,0.3207
1168.0,0.3254
1169.0,0.3309
1170.0,0.3548
1171.0,0.3468
1172.0,0.3503
1173.0,0.354
1174.0,0.2666
1175.0,0.3438
1176.0,0.3715
1177.0,0.3608
1178.0,0.2815
1179.0,0.3742
1180.0,0.3413
1181.0,0.3514
1182.0,0.2539
1183.0,0.3444
1184.0,0.3265
1185.0,0.3183
1186.0,0.3664
1187.0,0.3524
1188.0,0.259
1189.0,0.3291
1190.0,0.3581
1191.0,0.3456
1192.0,0.3624
1193.0,0.3494
1194.0,0.3587
1195.0,0.3432
1196.0,0.3331
1197.0,0.3566
1198.0,0.3295
1199.0,0.2894
1200.0,0.3453
1201.0,0.3361
1202.0,0.3325
1203.0,0.3297
1204.0,0.2936
1205.0,0.3375
1206.0,0.3676
1207.0,0.3324
1208.0,0.3245
1209.0,0.3305
1210.0,0.3422
1211.0,0.3294
1212.0,0.3293
1213.0,0.3574
1214.0,0.3352
1215.0,0.3298
1216.0,0.3561
1217.0,0.3485
1218.0,0.3534
1219.0,0.3498
1220.0,0.3535
1221.0,0.356
1222.0,0.3479
1223.0,0.3453
1224.0,0.3445
1225.0,0.3538
1226.0,0.3551
1227.0,0.3321
1228.0,0.356
1229.0,0.3551
1230.0,0.3499
1231.0,0.357
1232.0,0.355
1233.0,0.3464
1234.0,0.356
1235.0,0.3542
1236.0,0.3564
1237.0,0.3529
1238.0,0.3552
1239.0,0.3507
1240.0,0.3518
1241.0,0.351
1242.0,0.3495
1243.0,0.3466
1244.0,0.3494
1245.0,0.3507
1246.0,0.3486
1247.0,0.3475
1248.0,0.3477
1249.0,0.3484
1250.0,0.3465
1251.0,0.3426
1252.0,0.342
1253.0,0.3405
1254.0,0.338
1255.0,0.342
1256.0,0.3346
1257.0,0.3333
1258.0,0.3377
1259.0,0.329
1260.0,0.3302
1261.0,0.3162
1262.0,0.3091
1263.0,0.3098
1264.0,0.2915
1265.0,0.3077
1266.0,0.2994
1267.0,0.3024
1268.0,0.2904
1269.0,0.2058
1270.0,0.3021
1271.0,0.3146
1272.0,0.3151
1273.0,0.3122
1274.0,0.3126
1275.0,0.3163
1276.0,0.3184
1277.0,0.3196
1278.0,0.3238
1279.0,0.3211
1280.0,0.3169
1281.0,0.3016
1282.0,0.2892
1283.0,0.3118
1284.0,0.3195
1285.0,0.3214
1286.0,0.325
1287.0,0.3214
1288.0,0.3209
1289.0,0.3135
1290.0,0.3179
1291.0,0.3218
1292.0,0.3076
1293.0,0.3169
1294.0,0.3149
1295.0,0.3147
1296.0,0.3038
1297.0,0.2902
1298.0,0.3069
1299.0,0.3168
1300.0,0.2776
1301.0,0.2842
1302.0,0.3057
1303.0,0.2729
1304.0,0.2418
1305.0,0.3002
1306.0,0.3007
1307.0,0.2439
1308.0,0.272
1309.0,0.2991
1310.0,0.2397
1311.0,0.2627
1312.0,0.2571
1313.0,0.2535
1314.0,0.2302
1315.0,0.2292
1316.0,0.2601
1317.0,0.2474
1318.0,0.2652
1319.0,0.2181
1320.0,0.209
1321.0,0.2396
1322.0,0.2436
1323.0,0.1924
1324.0,0.2139
1325.0,0.2568
1326.0,0.2262
1327.0,0.2172
1328.0,0.1902
1329.0,0.1506
1330.0,0.192
1331.0,0.1256
1332.0,0.1263
1333.0,0.1731
1334.0,0.1429
1335.0,0.1915
1336.0,0.1562
1337.0,0.1412
1338.0,0.1522
1339.0,0.1504
1340.0,0.1439
1341.0,0.1459
1342.0,0.1529
1343.0,0.1157
1344.0,0.06914
1345.0,0.09803
1346.0,0.0574
1347.0,0.0598
1348.0,0.005939
1349.0,0.01873
1350.0,0.01775
1351.0,0.00628
1352.0,0.002459
1353.0,0.0002002
1354.0,0.0005217
1355.0,1.04e-05
1356.0,0.000102
1357.0,0.0001527
1358.0,1.188e-05
1359.0,2.868e-06
1360.0,6.861e-06
1361.0,3.201e-08
1362.0,1.71e-10
1363.0,1.065e-05
1364.0,4.835e-06
1365.0,1.245e-10
1366.0,3.889e-05
1367.0,1.5e-05
1368.0,4.232e-12
1369.0,1.908e-06
1370.0,1.233e-06
1371.0,1.019e-07
1372.0,8.343e-06
1373.0,0.0001049
1374.0,0.0003567
1375.0,0.0006348
1376.0,0.0004629
1377.0,0.0002293
1378.0,0.001875
1379.0,9.881e-05
1380.0,0.0001685
1381.0,5.564e-06
1382.0,8.105e-06
1383.0,1.659e-07
1384.0,2.383e-06
1385.0,5.736e-06
1386.0,8.643e-06
1387.0,0.0004291
1388.0,9.402e-06
1389.0,0.001061
1390.0,0.0009048
1391.0,0.0006581
1392.0,4.974e-05
1393.0,0.0002195
1394.0,0.0001803
1395.0,2.034e-06
1396.0,3.841e-08
1397.0,9.969e-05
1398.0,0.00215
1399.0,0.001372
1400.0,2.368e-08
1401.0,6.033e-08
1402.0,0.002581
1403.0,0.003468
1404.0,0.001094
1405.0,1.255e-06
1406.0,0.003172
1407.0,0.0002723
1408.0,0.002555
1409.0,0.001075
1410.0,0.0007723
1411.0,0.003015
1412.0,0.003654
1413.0,0.0264
1414.0,0.0005958
1415.0,0.0003211
1416.0,0.03649
1417.0,0.01368
1418.0,0.0156
1419.0,0.00257
1420.0,0.009671
1421.0,0.01073
1422.0,0.04675
1423.0,0.009835
1424.0,0.01779
1425.0,0.02692
1426.0,0.02837
1427.0,0.04697
1428.0,0.005742
1429.0,0.03732
1430.0,0.05825
1431.0,0.06264
1432.0,0.004607
1433.0,0.04181
1434.0,0.02228
1435.0,0.02566
1436.0,0.044
1437.0,0.03382
1438.0,0.01585
1439.0,0.05737
1440.0,0.04337
1441.0,0.03558
1442.0,0.03878
1443.0,0.04487
1444.0,0.06067
1445.0,0.05044
1446.0,0.02363
1447.0,0.03726
1448.0,0.1039
1449.0,0.09323
1450.0,0.02757
1451.0,0.01191
1452.0,0.05896
1453.0,0.07557
1454.0,0.1195
1455.0,0.06019
1456.0,0.08249
1457.0,0.1044
1458.0,0.1173
1459.0,0.1396
1460.0,0.07592
1461.0,0.08174
1462.0,0.1149
1463.0,0.0407
