interpolation:linear
wavelength,value
280.0,2.87e-20
280.5,8.24e-19
281.0,4.226e-18
281.5,4.229e-19
282.0,1.758e-18
282.5,4.926e-18
283.0,1.634e-17
283.5,2.693e-17
284.0,4.267e-16
284.5,1.207e-15
285.0,1.99e-15
285.5,1.167e-14
286.0,4.902e-14
286.5,2.309e-13
287.0,6.759e-13
287.5,2.634e-12
288.0,8.173e-12
288.5,3.193e-11
289.0,1.055e-10
289.5,3.895e-10
290.0,1.255e-09
290.5,2.886e-09
291.0,7.091e-09
291.5,2.392e-08
292.0,6.603e-08
292.5,1.045e-07
293.0,2.616e-07
293.5,7.907e-07
294.0,1.457e-06
294.5,1.923e-06
295.0,3.807e-06
295.5,9.525e-06
296.0,1.836e-05
296.5,2.563e-05
297.0,3.462e-05
297.5,9.246e-05
298.0,0.0001451
298.5,0.0001455
299.0,0.0003198
299.5,0.0005266
300.0,0.0005771
300.5,0.0008326
301.0,0.001497
301.5,0.002374
302.0,0.002028
302.5,0.003852
303.0,0.006667
303.5,0.008195
304.0,0.007567
304.5,0.01079
305.0,0.01535
305.5,0.01689
306.0,0.0161
306.5,0.01954
307.0,0.0274
307.5,0.03454
308.0,0.03617
308.5,0.04162
309.0,0.04027
309.5,0.04445
310.0,0.04391
310.5,0.07051
311.0,0.08727
311.5,0.08373
312.0,0.08118
312.5,0.09677
313.0,0.1038
313.5,0.1018
314.0,0.1242
314.5,0.1065
315.0,0.1392
315.5,0.1183
316.0,0.1006
316.5,0.1411
317.0,0.1752
317.5,0.1835
318.0,0.1409
318.5,0.1697
319.0,0.1983
319.5,0.1657
320.0,0.2009
320.5,0.2437
321.0,0.2109
321.5,0.2017
322.0,0.2215
322.5,0.1924
323.0,0.1879
323.5,0.2266
324.0,0.2636
324.5,0.2698
325.0,0.2355
325.5,0.298
326.0,0.3626
326.5,0.3593
327.0,0.3595
327.5,0.3489
328.0,0.3151
328.5,0.3255
329.0,0.3844
329.5,0.4346
330.0,0.4398
330.5,0.3557
331.0,0.3637
331.5,0.3667
332.0,0.3917
332.5,0.3854
333.0,0.3854
333.5,0.3518
334.0,0.3608
334.5,0.4124
335.0,0.3854
335.5,0.4501
336.0,0.3114
336.5,0.3656
337.0,0.3012
337.5,0.3751
338.0,0.3634
338.5,0.4193
339.0,0.4149
339.5,0.3991
340.0,0.4691
340.5,0.4225
341.0,0.4121
341.5,0.3783
342.0,0.452
342.5,0.4228
343.0,0.4651
343.5,0.438
344.0,0.3236
344.5,0.3269
345.0,0.4325
345.5,0.4414
346.0,0.3751
346.5,0.4247
347.0,0.4559
347.5,0.3687
348.0,0.4202
348.5,0.4199
349.0,0.3895
349.5,0.3856
350.0,0.4769
350.5,0.503
351.0,0.4494
351.5,0.4369
352.0,0.4691
352.5,0.366
353.0,0.461
353.5,0.4929
354.0,0.5116
354.5,0.5189
355.0,0.5172
355.5,0.4672
356.0,0.4887
356.5,0.4173
357.0,0.3448
357.5,0.4222
358.0,0.3346
358.5,0.2859
359.0,0.3999
359.5,0.5097
360.0,0.5403
360.5,0.4318
361.0,0.3936
361.5,0.4532
362.0,0.3918
362.5,0.5422
363.0,0.487
363.5,0.4485
364.0,0.5485
364.5,0.4689
365.0,0.4775
365.5,0.5993
366.0,0.6349
366.5,0.5965
367.0,0.581
367.5,0.6029
368.0,0.5276
368.5,0.5324
369.0,0.5749
369.5,0.6128
370.0,0.6533
370.5,0.507
371.0,0.5418
371.5,0.6778
372.0,0.4499
372.5,0.5394
373.0,0.5487
373.5,0.357
374.0,0.5188
374.5,0.4296
375.0,0.4176
375.5,0.6236
376.0,0.5169
376.5,0.5357
377.0,0.5672
377.5,0.6636
378.0,0.7194
378.5,0.68
379.0,0.5612
379.5,0.5127
380.0,0.533
380.5,0.6456
381.0,0.647
381.5,0.5128
382.0,0.4554
382.5,0.3882
383.0,0.3594
383.5,0.3462
384.0,0.3819
384.5,0.5617
385.0,0.557
385.5,0.5188
386.0,0.4443
386.5,0.5837
387.0,0.485
387.5,0.5448
388.0,0.503
388.5,0.4972
389.0,0.5368
389.5,0.6501
390.0,0.6525
390.5,0.6005
391.0,0.7069
391.5,0.721
392.0,0.6073
392.5,0.5437
393.0,0.3025
393.5,0.2199
394.0,0.4475
394.5,0.569
395.0,0.6943
395.5,0.7054
396.0,0.6116
396.5,0.3575
397.0,0.2683
397.5,0.5457
398.0,0.7642
398.5,0.7899
399.0,0.8553
399.5,0.8526
400.0,0.8854
401.0,0.8994
402.0,0.9488
403.0,0.9013
404.0,0.8874
405.0,0.8873
406.0,0.8729
407.0,0.8588
408.0,0.8924
409.0,0.9551
410.0,0.8345
411.0,0.9039
412.0,0.9707
413.0,0.9467
414.0,0.9583
415.0,0.9607
416.0,0.9775
417.0,0.9535
418.0,0.9358
419.0,0.9481
420.0,0.9439
421.0,0.9875
422.0,0.9386
423.0,0.9168
424.0,0.9697
425.0,0.9679
426.0,0.9426
427.0,0.925
428.0,0.9011
429.0,0.8533
430.0,0.7467
431.0,0.7402
432.0,0.9556
433.0,0.9608
434.0,0.8922
435.0,0.9318
436.0,1.05
437.0,1.035
438.0,0.9428
439.0,0.9754
440.0,1.006
441.0,1.043
442.0,1.118
443.0,1.089
444.0,1.113
445.0,1.089
446.0,1.039
447.0,1.123
448.0,1.14
449.0,1.145
450.0,1.176
451.0,1.22
452.0,1.175
453.0,1.105
454.0,1.154
455.0,1.161
456.0,1.188
457.0,1.208
458.0,1.167
459.0,1.161
460.0,1.164
461.0,1.191
462.0,1.2
463.0,1.192
464.0,1.172
465.0,1.156
466.0,1.167
467.0,1.146
468.0,1.16
469.0,1.166
470.0,1.129
471.0,1.127
472.0,1.188
473.0,1.172
474.0,1.174
475.0,1.185
476.0,1.15
477.0,1.153
478.0,1.185
479.0,1.178
480.0,1.18
481.0,1.201
482.0,1.207
483.0,1.192
484.0,1.167
485.0,1.112
486.0,0.9719
487.0,1.018
488.0,1.117
489.0,1.121
490.0,1.179
491.0,1.159
492.0,1.094
493.0,1.13
494.0,1.141
495.0,1.151
496.0,1.158
497.0,1.176
498.0,1.121
499.0,1.135
500.0,1.102
501.0,1.082
502.0,1.068
503.0,1.112
504.0,1.085
505.0,1.122
506.0,1.159
507.0,1.103
508.0,1.068
509.0,1.097
510.0,1.091
511.0,1.12
512.0,1.132
513.0,1.072
514.0,1.064
515.0,1.053
516.0,1.051
517.0,0.9338
518.0,0.9817
519.0,1.03
520.0,1.067
521.0,1.077
522.0,1.078
523.0,1.059
524.0,1.097
525.0,1.111
526.0,1.061
527.0,1.0
528.0,1.058
529.0,1.115
530.0,1.099
531.0,1.116
532.0,1.078
533.0,1.046
534.0,1.077
535.0,1.1
536.0,1.11
537.0,1.066
538.0,1.085
539.0,1.076
540.0,1.032
541.0,1.039
542.0,1.072
543.0,1.06
544.0,1.079
545.0,1.075
546.0,1.08
547.0,1.079
548.0,1.066
549.0,1.07
550.0,1.082
551.0,1.069
552.0,1.076
553.0,1.057
554.0,1.083
555.0,1.085
556.0,1.071
557.0,1.038
558.0,1.03
559.0,1.011
560.0,1.024
561.0,1.037
562.0,1.03
563.0,1.058
564.0,1.03
565.0,1.021
566.0,1.006
567.0,1.026
568.0,1.017
569.0,0.9945
570.0,0.994
571.0,0.9876
572.0,1.012
573.0,1.023
574.0,1.02
575.0,1.001
576.0,0.9923
577.0,1.003
578.0,0.9875
579.0,0.9908
580.0,1.009
581.0,1.013
582.0,1.032
583.0,1.034
584.0,1.042
585.0,1.017
586.0,0.9957
587.0,1.018
588.0,0.9949
589.0,0.8848
590.0,0.9251
591.0,0.9769
592.0,0.9657
593.0,0.9785
594.0,0.9724
595.0,0.9495
596.0,0.9842
597.0,0.9742
598.0,0.9709
599.0,0.9714
600.0,0.9721
601.0,0.9637
602.0,0.957
603.0,0.9726
604.0,0.9886
605.0,0.9833
606.0,0.979
607.0,0.9884
608.0,0.9772
609.0,0.9787
610.0,0.9714
611.0,0.9763
612.0,0.9733
613.0,0.9609
614.0,0.9475
615.0,0.9679
616.0,0.9359
617.0,0.9338
618.0,0.9697
619.0,0.9597
620.0,0.9658
621.0,0.967
622.0,0.9559
623.0,0.9416
624.0,0.9252
625.0,0.9231
626.0,0.9368
627.0,0.9479
628.0,0.8924
629.0,0.928
630.0,0.9068
631.0,0.9249
632.0,0.9134
633.0,0.9401
634.0,0.9302
635.0,0.9443
636.0,0.9314
637.0,0.9463
638.0,0.9549
639.0,0.9439
640.0,0.9344
641.0,0.9336
642.0,0.9291
643.0,0.9415
644.0,0.9382
645.0,0.9399
646.0,0.9188
647.0,0.9098
648.0,0.9109
649.0,0.8934
650.0,0.8952
651.0,0.9335
652.0,0.8974
653.0,0.921
654.0,0.9105
655.0,0.878
656.0,0.7772
657.0,0.798
658.0,0.8935
659.0,0.8996
660.0,0.9032
661.0,0.9095
662.0,0.9118
663.0,0.8936
664.0,0.9035
665.0,0.9037
666.0,0.9041
667.0,0.903
668.0,0.9032
669.0,0.917
670.0,0.9129
671.0,0.9125
672.0,0.9046
673.0,0.9182
674.0,0.9146
675.0,0.9062
676.0,0.9123
677.0,0.9032
678.0,0.9056
679.0,0.8909
680.0,0.898
681.0,0.8921
682.0,0.8909
683.0,0.8892
684.0,0.8848
685.0,0.8922
686.0,0.887
687.0,0.6199
688.0,0.7116
689.0,0.7137
690.0,0.7436
691.0,0.7771
692.0,0.8009
693.0,0.7948
694.0,0.7882
695.0,0.8171
696.0,0.8182
697.0,0.8636
698.0,0.8503
699.0,0.833
700.0,0.823
701.0,0.8156
702.0,0.8201
703.0,0.8216
704.0,0.846
705.0,0.8473
706.0,0.8458
707.0,0.8462
708.0,0.8481
709.0,0.8482
710.0,0.8487
711.0,0.8472
712.0,0.8441
713.0,0.8361
714.0,0.8391
715.0,0.8138
716.0,0.8146
717.0,0.7178
718.0,0.6612
719.0,0.6069
720.0,0.6365
721.0,0.6956
722.0,0.7883
723.0,0.7378
724.0,0.6692
725.0,0.6601
726.0,0.6902
727.0,0.6973
728.0,0.6589
729.0,0.6795
730.0,0.719
731.0,0.6892
732.0,0.7329
733.0,0.7717
734.0,0.7889
735.0,0.7731
736.0,0.7721
737.0,0.7753
738.0,0.7845
739.0,0.7691
740.0,0.7882
741.0,0.7799
742.0,0.7802
743.0,0.7999
744.0,0.7973
745.0,0.7972
746.0,0.8008
747.0,0.8025
748.0,0.8008
749.0,0.7917
750.0,0.7912
751.0,0.7832
752.0,0.7865
753.0,0.7904
754.0,0.7922
755.0,0.7877
756.0,0.7874
757.0,0.7885
758.0,0.7788
759.0,0.7645
760.0,0.1572
761.0,0.08884
762.0,0.422
763.0,0.2288
764.0,0.328
765.0,0.4221
766.0,0.5037
767.0,0.6212
768.0,0.7055
769.0,0.7178
770.0,0.7394
771.0,0.7441
772.0,0.7453
773.0,0.7504
774.0,0.7467
775.0,0.7409
776.0,0.7499
777.0,0.74
778.0,0.7356
779.0,0.7362
780.0,0.732
781.0,0.7328
782.0,0.7373
783.0,0.7244
784.0,0.7279
785.0,0.7226
786.0,0.7306
787.0,0.7191
788.0,0.7107
789.0,0.7106
790.0,0.6934
791.0,0.6977
792.0,0.6924
793.0,0.6813
794.0,0.6912
795.0,0.7033
796.0,0.6841
797.0,0.685
798.0,0.7027
799.0,0.6987
800.0,0.6871
801.0,0.6855
802.0,0.6835
803.0,0.6786
804.0,0.6792
805.0,0.6764
806.0,0.6943
807.0,0.6862
808.0,0.6867
809.0,0.6747
810.0,0.6698
811.0,0.6718
812.0,0.6541
813.0,0.6415
814.0,0.5698
815.0,0.5662
816.0,0.5277
817.0,0.5367
818.0,0.5179
819.0,0.5742
820.0,0.5426
821.0,0.6278
822.0,0.6109
823.0,0.4258
824.0,0.5954
825.0,0.6171
826.0,0.5957
827.0,0.6266
828.0,0.5371
829.0,0.5917
830.0,0.5845
831.0,0.5864
832.0,0.5695
833.0,0.6029
834.0,0.5835
835.0,0.6369
836.0,0.6122
837.0,0.6385
838.0,0.6198
839.0,0.6286
840.0,0.6421
841.0,0.6334
842.0,0.6341
843.0,0.6329
844.0,0.6245
845.0,0.6451
846.0,0.6421
847.0,0.6299
848.0,0.6263
849.0,0.6086
850.0,0.583
851.0,0.6176
852.0,0.6131
853.0,0.5899
854.0,0.5095
855.0,0.5595
856.0,0.6116
857.0,0.625
858.0,0.6205
859.0,0.6209
860.0,0.6219
861.0,0.6185
862.0,0.6282
863.0,0.643
864.0,0.6109
865.0,0.6055
866.0,0.5444
867.0,0.5681
868.0,0.6182
869.0,0.6054
870.0,0.6226
871.0,0.6142
872.0,0.612
873.0,0.6107
874.0,0.6035
875.0,0.5913
876.0,0.5974
877.0,0.6034
878.0,0.61
879.0,0.6007
880.0,0.5878
881.0,0.5791
882.0,0.5917
883.0,0.5934
884.0,0.5907
885.0,0.5952
886.0,0.5678
887.0,0.5734
888.0,0.5821
889.0,0.5883
890.0,0.5839
891.0,0.5826
892.0,0.5665
893.0,0.5496
894.0,0.5319
895.0,0.5047
896.0,0.4763
897.0,0.412
898.0,0.448
899.0,0.3441
900.0,0.457
901.0,0.3606
902.0,0.4187
903.0,0.4243
904.0,0.5279
905.0,0.5107
906.0,0.4786
907.0,0.393
908.0,0.4002
909.0,0.4316
910.0,0.3852
911.0,0.4084
912.0,0.4262
913.0,0.3911
914.0,0.3871
915.0,0.4194
916.0,0.3559
917.0,0.448
918.0,0.3651
919.0,0.4552
920.0,0.458
921.0,0.476
922.0,0.428
923.0,0.4597
924.0,0.4389
925.0,0.4294
926.0,0.4341
927.0,0.4836
928.0,0.3614
929.0,0.3316
930.0,0.2633
931.0,0.249
932.0,0.182
933.0,0.1493
934.0,0.08483
935.0,0.1517
936.0,0.09653
937.0,0.09807
938.0,0.1199
939.0,0.2413
940.0,0.2884
941.0,0.2202
942.0,0.2534
943.0,0.1685
944.0,0.1758
945.0,0.2266
946.0,0.1178
947.0,0.2282
948.0,0.168
949.0,0.303
950.0,0.08805
951.0,0.298
952.0,0.1634
953.0,0.2088
954.0,0.2537
955.0,0.211
956.0,0.2035
957.0,0.1639
958.0,0.2851
959.0,0.2291
960.0,0.2567
961.0,0.2861
962.0,0.2709
963.0,0.3106
964.0,0.2851
965.0,0.3093
966.0,0.3098
967.0,0.3086
968.0,0.4078
969.0,0.4264
970.0,0.3924
971.0,0.4466
972.0,0.4277
973.0,0.375
974.0,0.3563
975.0,0.3688
976.0,0.3516
977.0,0.3973
978.0,0.3786
979.0,0.3957
980.0,0.3726
981.0,0.4439
982.0,0.4254
983.0,0.4089
984.0,0.4563
985.0,0.4237
986.0,0.4636
987.0,0.4553
988.0,0.4544
989.0,0.4618
990.0,0.4517
991.0,0.4633
992.0,0.4659
993.0,0.4562
994.0,0.4657
995.0,0.465
996.0,0.463
997.0,0.4637
998.0,0.4615
999.0,0.4598
1000.0,0.4567
1001.0,0.4623
1002.0,0.4502
1003.0,0.4541
1004.0,0.4432
1005.0,0.4267
1006.0,0.4435
1007.0,0.4528
1008.0,0.4505
1009.0,0.4482
1010.0,0.4464
1011.0,0.4505
1012.0,0.4467
1013.0,0.4494
1014.0,0.4462
1015.0,0.4433
1016.0,0.4413
1017.0,0.4425
1018.0,0.4407
1019.0,0.4316
1020.0,0.4385
1021.0,0.4378
1022.0,0.4345
1023.0,0.4391
1024.0,0.4337
1025.0,0.4387
1026.0,0.4369
1027.0,0.4359
1028.0,0.435
1029.0,0.4299
1030.0,0.4327
1031.0,0.431
1032.0,0.4298
1033.0,0.4233
1034.0,0.4233
1035.0,0.4246
1036.0,0.4269
1037.0,0.4199
1038.0,0.4218
1039.0,0.4215
1040.0,0.4198
1041.0,0.4215
1042.0,0.4186
1043.0,0.4173
1044.0,0.4188
1045.0,0.4131
1046.0,0.4086
1047.0,0.4122
1048.0,0.4145
1049.0,0.4131
1050.0,0.4112
1051.0,0.4106
1052.0,0.409
1053.0,0.4058
1054.0,0.4067
1055.0,0.4069
1056.0,0.4055
1057.0,0.4043
1058.0,0.3944
1059.0,0.3949
1060.0,0.3943
1061.0,0.3938
1062.0,0.3959
1063.0,0.3921
1064.0,0.3967
1065.0,0.3939
1066.0,0.3861
1067.0,0.3911
1068.0,0.3826
1069.0,0.3707
1070.0,0.3834
1071.0,0.3891
1072.0,0.3848
1073.0,0.3792
1074.0,0.3888
1075.0,0.37
1076.0,0.3885
1077.0,0.3819
1078.0,0.3748
1079.0,0.3822
1080.0,0.376
1081.0,0.3643
1082.0,0.3696
1083.0,0.3706
1084.0,0.3636
1085.0,0.3768
1086.0,0.3449
1087.0,0.3553
1088.0,0.3703
1089.0,0.3596
1090.0,0.3521
1091.0,0.3693
1092.0,0.3682
1093.0,0.3141
1094.0,0.3371
1095.0,0.327
1096.0,0.3137
1097.0,0.3596
1098.0,0.309
1099.0,0.322
1100.0,0.3002
1101.0,0.3037
1102.0,0.2906
1103.0,0.2882
1104.0,0.2885
1105.0,0.3148
1106.0,0.2442
1107.0,0.2997
1108.0,0.256
1109.0,0.2561
1110.0,0.2973
1111.0,0.2043
1112.0,0.254
1113.0,0.1644
1114.0,0.1835
1115.0,0.1522
1116.0,0.1231
1117.0,0.04701
1118.0,0.1334
1119.0,0.0676
1120.0,0.08517
1121.0,0.1122
1122.0,0.04841
1123.0,0.07691
1124.0,0.06493
1125.0,0.08437
1126.0,0.03056
1127.0,0.09507
1128.0,0.05816
1129.0,0.06153
1130.0,0.041
1131.0,0.1772
1132.0,0.1396
1133.0,0.09011
1134.0,0.02399
1135.0,0.008941
1136.0,0.07576
1137.0,0.1746
1138.0,0.1233
1139.0,0.1808
1140.0,0.1523
1141.0,0.1172
1142.0,0.1342
1143.0,0.1892
1144.0,0.06766
1145.0,0.08687
1146.0,0.09371
1147.0,0.0342
1148.0,0.1638
1149.0,0.1318
1150.0,0.07265
1151.0,0.1224
1152.0,0.1495
1153.0,0.1449
1154.0,0.08441
1155.0,0.1886
1156.0,0.1705
1157.0,0.1903
1158.0,0.1882
1159.0,0.2022
1160.0,0.1738
1161.0,0.2121
1162.0,0.2133
1163.0,0.2844
1164.0,0.2453
1165.0,0.2328
1166.0,0.2302
1167.0,0.25
1168.0,0.2531
1169.0,0.2586
1170.0,0.2799
1171.0,0.2731
1172.0,0.2773
1173.0,0.2793
1174.0,0.2027
1175.0,0.2723
1176.0,0.2977
1177.0,0.2869
1178.0,0.218
1179.0,0.3
1180.0,0.2696
1181.0,0.2781
1182.0,0.1947
1183.0,0.2734
1184.0,0.2572
1185.0,0.249
1186.0,0.2924
1187.0,0.2794
1188.0,0.1983
1189.0,0.2605
1190.0,0.2857
1191.0,0.2729
1192.0,0.2895
1193.0,0.278
1194.0,0.2862
1195.0,0.2718
1196.0,0.2624
1197.0,0.2857
1198.0,0.2622
1199.0,0.2256
1200.0,0.2746
1201.0,0.2657
1202.0,0.2636
1203.0,0.2615
1204.0,0.2301
1205.0,0.269
1206.0,0.2957
1207.0,0.2632
1208.0,0.2583
1209.0,0.2634
1210.0,0.2738
1211.0,0.2618
1212.0,0.2598
1213.0,0.2866
1214.0,0.2655
1215.0,0.2607
1216.0,0.2856
1217.0,0.2786
1218.0,0.2833
1219.0,0.2801
1220.0,0.2836
1221.0,0.2861
1222.0,0.279
1223.0,0.2766
1224.0,0.2753
1225.0,0.2843
1226.0,0.2859
1227.0,0.2651
1228.0,0.287
1229.0,0.2859
1230.0,0.2813
1231.0,0.2884
1232.0,0.2867
1233.0,0.278
1234.0,0.2879
1235.0,0.2863
1236.0,0.2882
1237.0,0.2846
1238.0,0.2872
1239.0,0.2836
1240.0,0.2846
1241.0,0.2835
1242.0,0.2827
1243.0,0.2804
1244.0,0.2824
1245.0,0.2836
1246.0,0.2819
1247.0,0.2809
1248.0,0.2808
1249.0,0.2816
1250.0,0.28
1251.0,0.2766
1252.0,0.2764
1253.0,0.2745
1254.0,0.2721
1255.0,0.2762
1256.0,0.2691
1257.0,0.2678
1258.0,0.2723
1259.0,0.2635
1260.0,0.2647
1261.0,0.2512
1262.0,0.2444
1263.0,0.2449
1264.0,0.2277
1265.0,0.2433
1266.0,0.2351
1267.0,0.2386
1268.0,0.2273
1269.0,0.1483
1270.0,0.238
1271.0,0.2502
1272.0,0.2509
1273.0,0.2484
1274.0,0.249
1275.0,0.2523
1276.0,0.2545
1277.0,0.2559
1278.0,0.2602
1279.0,0.2579
1280.0,0.2546
1281.0,0.2427
1282.0,0.2334
1283.0,0.2515
1284.0,0.2576
1285.0,0.2592
1286.0,0.2625
1287.0,0.2589
1288.0,0.2587
1289.0,0.2514
1290.0,0.2564
1291.0,0.2598
1292.0,0.2457
1293.0,0.2551
1294.0,0.2534
1295.0,0.2526
1296.0,0.2422
1297.0,0.2299
1298.0,0.2458
1299.0,0.2553
1300.0,0.2188
1301.0,0.225
1302.0,0.245
1303.0,0.2157
1304.0,0.1865
1305.0,0.2401
1306.0,0.2403
1307.0,0.1896
1308.0,0.2156
1309.0,0.2387
1310.0,0.1861
1311.0,0.2073
1312.0,0.202
1313.0,0.1986
1314.0,0.1786
1315.0,0.1769
1316.0,0.2044
1317.0,0.1939
1318.0,0.2097
1319.0,0.1669
1320.0,0.161
1321.0,0.1866
1322.0,0.1889
1323.0,0.1445
1324.0,0.1636
1325.0,0.2016
1326.0,0.1746
1327.0,0.1669
1328.0,0.1446
1329.0,0.1106
1330.0,0.143
1331.0,0.08856
1332.0,0.09068
1333.0,0.1257
1334.0,0.1054
1335.0,0.1439
1336.0,0.115
1337.0,0.1023
1338.0,0.1107
1339.0,0.1099
1340.0,0.1063
1341.0,0.1051
1342.0,0.1103
1343.0,0.07741
1344.0,0.04622
1345.0,0.06646
1346.0,0.03477
1347.0,0.03565
1348.0,0.00264
1349.0,0.009129
1350.0,0.009227
1351.0,0.002526
1352.0,0.0007752
1353.0,4.571e-05
1354.0,0.0001437
1355.0,1.556e-06
1356.0,2.258e-05
1357.0,3.427e-05
1358.0,1.821e-06
1359.0,2.86e-07
1360.0,9.012e-07
1361.0,1.612e-09
1362.0,5.425e-12
1363.0,1.298e-06
1364.0,5.468e-07
1365.0,2.453e-12
1366.0,5.352e-06
1367.0,2.119e-06
1368.0,3.138e-14
1369.0,2.072e-07
1370.0,1.121e-07
1371.0,7.163e-09
1372.0,1.167e-06
1373.0,2.027e-05
1374.0,8.512e-05
1375.0,0.000155
1376.0,0.0001286
1377.0,6.034e-05
1378.0,0.0005631
1379.0,2.548e-05
1380.0,3.901e-05
1381.0,1.088e-06
1382.0,1.08e-06
1383.0,1.77e-08
1384.0,2.431e-07
1385.0,9.222e-07
1386.0,1.026e-06
1387.0,9.366e-05
1388.0,1.87e-06
1389.0,0.0002848
1390.0,0.0002453
1391.0,0.0001675
1392.0,1.132e-05
1393.0,5.679e-05
1394.0,3.448e-05
1395.0,2.87e-07
1396.0,2.182e-09
1397.0,2.358e-05
1398.0,0.0006389
1399.0,0.0004048
1400.0,1.065e-09
1401.0,3.756e-09
1402.0,0.0009858
1403.0,0.00127
1404.0,0.0003913
1405.0,1.513e-07
1406.0,0.001061
1407.0,9.142e-05
1408.0,0.0008622
1409.0,0.0003117
1410.0,0.0002387
1411.0,0.001112
1412.0,0.001449
1413.0,0.01349
1414.0,0.0001867
1415.0,9.287e-05
1416.0,0.02105
1417.0,0.006706
1418.0,0.00768
1419.0,0.001208
1420.0,0.004712
1421.0,0.005103
1422.0,0.02739
1423.0,0.005393
1424.0,0.01003
1425.0,0.01488
1426.0,0.01659
1427.0,0.02983
1428.0,0.002505
1429.0,0.02261
1430.0,0.0378
1431.0,0.04134
1432.0,0.00198
1433.0,0.02653
1434.0,0.01361
1435.0,0.01401
1436.0,0.02642
1437.0,0.02024
1438.0,0.008716
1439.0,0.03566
1440.0,0.02673
1441.0,0.02066
1442.0,0.02287
1443.0,0.02829
1444.0,0.03901
1445.0,0.03085
1446.0,0.01398
1447.0,0.022
1448.0,0.0723
1449.0,0.06307
