interpolation:linear
wavelength,value
280.0,2.2979999999999997e-22
280.5,7.576e-21
281.0,4.066e-20
281.5,3.906e-19
282.0,6.282e-19
282.5,1.557e-18
283.0,4.927e-18
283.5,8.026e-18
284.0,1.325e-16
284.5,3.868e-16
285.0,6.335e-16
285.5,3.165e-15
286.0,1.277e-14
286.5,5.76e-14
287.0,1.655e-13
287.5,6.389e-13
288.0,2.239e-12
288.5,6.703e-12
289.0,1.774e-11
289.5,5.335e-11
290.0,1.478e-10
290.5,3.011e-10
291.0,6.459e-10
291.5,1.854e-09
292.0,3.72e-09
292.5,5.226e-09
293.0,1.122e-08
293.5,2.737e-08
294.0,4.285e-08
294.5,5.868e-08
295.0,9.952e-08
295.5,1.656e-07
296.0,3.214e-07
296.5,4.525e-07
297.0,6.158e-07
297.5,1.669e-06
298.0,2.657e-06
298.5,2.696e-06
299.0,5.996e-06
299.5,1.014e-05
300.0,1.126e-05
300.5,1.65e-05
301.0,3.046e-05
301.5,4.943e-05
302.0,4.265e-05
302.5,8.591e-05
303.0,0.0001613
303.5,0.0002106
304.0,0.0002052
304.5,0.0003381
305.0,0.0005915
305.5,0.0007434
306.0,0.0007462
306.5,0.0009881
307.0,0.001683
307.5,0.002565
308.0,0.00277
308.5,0.003505
309.0,0.003509
309.5,0.004492
310.0,0.00475
310.5,0.007891
311.0,0.01032
311.5,0.01015
312.0,0.0111
312.5,0.01432
313.0,0.01602
313.5,0.01512
314.0,0.02028
314.5,0.01973
315.0,0.02636
315.5,0.02108
316.0,0.01985
316.5,0.03039
317.0,0.03769
317.5,0.03851
318.0,0.03139
318.5,0.04238
319.0,0.05245
319.5,0.03996
320.0,0.0478
320.5,0.06513
321.0,0.0626
321.5,0.06049
322.0,0.05941
322.5,0.05191
323.0,0.05453
323.5,0.07054
324.0,0.08307
324.5,0.08252
325.0,0.06929
325.5,0.09304
326.0,0.1154
326.5,0.1189
327.0,0.1173
327.5,0.1118
328.0,0.09595
328.5,0.1055
329.0,0.131
329.5,0.1504
330.0,0.1504
330.5,0.1171
331.0,0.1182
331.5,0.1227
332.0,0.1366
332.5,0.137
333.0,0.1356
333.5,0.1201
334.0,0.1226
334.5,0.1451
335.0,0.1384
335.5,0.1623
336.0,0.1124
336.5,0.1302
337.0,0.1058
337.5,0.1311
338.0,0.1307
338.5,0.1518
339.0,0.1505
339.5,0.1448
340.0,0.1693
340.5,0.153
341.0,0.1498
341.5,0.138
342.0,0.1651
342.5,0.1546
343.0,0.1699
343.5,0.1599
344.0,0.1177
344.5,0.1193
345.0,0.1583
345.5,0.162
346.0,0.1379
346.5,0.1563
347.0,0.1676
347.5,0.1356
348.0,0.1549
348.5,0.155
349.0,0.144
349.5,0.1426
350.0,0.1766
350.5,0.1863
351.0,0.1664
351.5,0.1615
352.0,0.1738
352.5,0.1359
353.0,0.1714
353.5,0.1834
354.0,0.1906
354.5,0.1933
355.0,0.1927
355.5,0.1743
356.0,0.1825
356.5,0.1559
357.0,0.1289
357.5,0.1579
358.0,0.1252
358.5,0.107
359.0,0.1498
359.5,0.1908
360.0,0.2024
360.5,0.1619
361.0,0.1478
361.5,0.1704
362.0,0.1475
362.5,0.2044
363.0,0.1838
363.5,0.1694
364.0,0.2074
364.5,0.1774
365.0,0.1808
365.5,0.2271
366.0,0.2408
366.5,0.2265
367.0,0.2207
367.5,0.2292
368.0,0.2007
368.5,0.2027
369.0,0.2191
369.5,0.2337
370.0,0.2493
370.5,0.1937
371.0,0.2071
371.5,0.2593
372.0,0.1722
372.5,0.2066
373.0,0.2103
373.5,0.137
374.0,0.1992
374.5,0.1651
375.0,0.1606
375.5,0.2399
376.0,0.199
376.5,0.2063
377.0,0.2186
377.5,0.2559
378.0,0.2776
378.5,0.2625
379.0,0.2167
379.5,0.198
380.0,0.206
380.5,0.2497
381.0,0.2505
381.5,0.1988
382.0,0.1767
382.5,0.1508
383.0,0.1398
383.5,0.1347
384.0,0.1487
384.5,0.219
385.0,0.2173
385.5,0.2026
386.0,0.1736
386.5,0.2283
387.0,0.1898
387.5,0.2133
388.0,0.1971
388.5,0.195
389.0,0.2106
389.5,0.2553
390.0,0.2564
390.5,0.2362
391.0,0.2782
391.5,0.284
392.0,0.2393
392.5,0.2144
393.0,0.1194
393.5,0.08689
394.0,0.1769
394.5,0.2251
395.0,0.2749
395.5,0.2794
396.0,0.2424
396.5,0.1419
397.0,0.1065
397.5,0.2168
398.0,0.3037
398.5,0.3141
399.0,0.3406
399.5,0.3397
400.0,0.3528
401.0,0.3557
402.0,0.3759
403.0,0.3577
404.0,0.3526
405.0,0.353
406.0,0.3478
407.0,0.3428
408.0,0.3564
409.0,0.3819
410.0,0.3342
411.0,0.3625
412.0,0.3901
413.0,0.3807
414.0,0.3859
415.0,0.3875
416.0,0.395
417.0,0.3856
418.0,0.3789
419.0,0.3844
420.0,0.3831
421.0,0.4013
422.0,0.3818
423.0,0.3733
424.0,0.3951
425.0,0.3949
426.0,0.3854
427.0,0.3786
428.0,0.3691
429.0,0.3503
430.0,0.3069
431.0,0.3043
432.0,0.3935
433.0,0.3961
434.0,0.368
435.0,0.3845
436.0,0.434
437.0,0.4289
438.0,0.391
439.0,0.404
440.0,0.4174
441.0,0.4331
442.0,0.4648
443.0,0.4526
444.0,0.4631
445.0,0.4532
446.0,0.4334
447.0,0.4693
448.0,0.4764
449.0,0.4793
450.0,0.4932
451.0,0.5118
452.0,0.4936
453.0,0.4647
454.0,0.4858
455.0,0.4889
456.0,0.5009
457.0,0.5094
458.0,0.4917
459.0,0.4894
460.0,0.4906
461.0,0.5022
462.0,0.5067
463.0,0.5033
464.0,0.4959
465.0,0.4906
466.0,0.496
467.0,0.4868
468.0,0.4926
469.0,0.4953
470.0,0.4794
471.0,0.4791
472.0,0.5049
473.0,0.4984
474.0,0.4986
475.0,0.5023
476.0,0.4865
477.0,0.4872
478.0,0.501
479.0,0.4985
480.0,0.4999
481.0,0.51
482.0,0.5135
483.0,0.5082
484.0,0.4984
485.0,0.4754
486.0,0.4162
487.0,0.4368
488.0,0.4792
489.0,0.4805
490.0,0.506
491.0,0.4977
492.0,0.4701
493.0,0.4856
494.0,0.4906
495.0,0.495
496.0,0.498
497.0,0.5057
498.0,0.4819
499.0,0.4878
500.0,0.4731
501.0,0.4639
502.0,0.4563
503.0,0.4738
504.0,0.4587
505.0,0.4776
506.0,0.493
507.0,0.4693
508.0,0.4556
509.0,0.4692
510.0,0.4674
511.0,0.4806
512.0,0.4862
513.0,0.4603
514.0,0.4574
515.0,0.4529
516.0,0.4516
517.0,0.4015
518.0,0.422
519.0,0.4426
520.0,0.4586
521.0,0.4628
522.0,0.4629
523.0,0.4544
524.0,0.4701
525.0,0.4748
526.0,0.4533
527.0,0.4265
528.0,0.4505
529.0,0.4744
530.0,0.4673
531.0,0.474
532.0,0.4575
533.0,0.4441
534.0,0.4575
535.0,0.4679
536.0,0.4726
537.0,0.4543
538.0,0.4625
539.0,0.4586
540.0,0.4395
541.0,0.4414
542.0,0.4548
543.0,0.4507
544.0,0.4578
545.0,0.4565
546.0,0.4578
547.0,0.4582
548.0,0.4531
549.0,0.4547
550.0,0.4602
551.0,0.4547
552.0,0.4579
553.0,0.4496
554.0,0.4602
555.0,0.4609
556.0,0.4548
557.0,0.4403
558.0,0.4365
559.0,0.4279
560.0,0.4329
561.0,0.438
562.0,0.4342
563.0,0.4454
564.0,0.4327
565.0,0.4285
566.0,0.4217
567.0,0.4291
568.0,0.4236
569.0,0.4104
570.0,0.4107
571.0,0.409
572.0,0.4167
573.0,0.4208
574.0,0.419
575.0,0.4104
576.0,0.4067
577.0,0.4115
578.0,0.4062
579.0,0.4093
580.0,0.4194
581.0,0.4233
582.0,0.4329
583.0,0.4352
584.0,0.4399
585.0,0.4296
586.0,0.4209
587.0,0.4291
588.0,0.4148
589.0,0.3599
590.0,0.377
591.0,0.4035
592.0,0.3957
593.0,0.4051
594.0,0.4008
595.0,0.388
596.0,0.4096
597.0,0.4035
598.0,0.4044
599.0,0.4056
600.0,0.4078
601.0,0.4056
602.0,0.4031
603.0,0.4104
604.0,0.4175
605.0,0.4157
606.0,0.4147
607.0,0.4196
608.0,0.4156
609.0,0.4169
610.0,0.4147
611.0,0.4173
612.0,0.4165
613.0,0.4116
614.0,0.4066
615.0,0.416
616.0,0.4028
617.0,0.4023
618.0,0.4182
619.0,0.4142
620.0,0.4168
621.0,0.4167
622.0,0.4113
623.0,0.4047
624.0,0.3982
625.0,0.3973
626.0,0.403
627.0,0.406
628.0,0.3615
629.0,0.3902
630.0,0.3806
631.0,0.3952
632.0,0.3917
633.0,0.4061
634.0,0.4041
635.0,0.4114
636.0,0.4071
637.0,0.4147
638.0,0.4201
639.0,0.4161
640.0,0.413
641.0,0.4133
642.0,0.4122
643.0,0.4179
644.0,0.4173
645.0,0.4175
646.0,0.4057
647.0,0.3959
648.0,0.3965
649.0,0.3881
650.0,0.3964
651.0,0.4147
652.0,0.3911
653.0,0.4096
654.0,0.4055
655.0,0.3872
656.0,0.3454
657.0,0.3551
658.0,0.4
659.0,0.4037
660.0,0.4059
661.0,0.4089
662.0,0.4086
663.0,0.401
664.0,0.4075
665.0,0.4092
666.0,0.4101
667.0,0.4105
668.0,0.4114
669.0,0.4182
670.0,0.4167
671.0,0.417
672.0,0.4137
673.0,0.4202
674.0,0.419
675.0,0.4155
676.0,0.4186
677.0,0.4147
678.0,0.4161
679.0,0.4096
680.0,0.4131
681.0,0.4105
682.0,0.41
683.0,0.4093
684.0,0.4072
685.0,0.411
686.0,0.4082
687.0,0.1988
688.0,0.2638
689.0,0.2658
690.0,0.2902
691.0,0.3191
692.0,0.3422
693.0,0.3387
694.0,0.3375
695.0,0.3608
696.0,0.3619
697.0,0.3948
698.0,0.3885
699.0,0.3718
700.0,0.3669
701.0,0.3602
702.0,0.3657
703.0,0.367
704.0,0.3833
705.0,0.3838
706.0,0.3851
707.0,0.3862
708.0,0.3868
709.0,0.3904
710.0,0.3887
711.0,0.3893
712.0,0.3896
713.0,0.3843
714.0,0.3862
715.0,0.3709
716.0,0.3704
717.0,0.2945
718.0,0.2683
719.0,0.2437
720.0,0.2525
721.0,0.2938
722.0,0.3526
723.0,0.3201
724.0,0.2784
725.0,0.2708
726.0,0.2842
727.0,0.295
728.0,0.2689
729.0,0.2882
730.0,0.3028
731.0,0.2881
732.0,0.318
733.0,0.3455
734.0,0.3567
735.0,0.3477
736.0,0.3469
737.0,0.3483
738.0,0.3609
739.0,0.3539
740.0,0.3653
741.0,0.363
742.0,0.3647
743.0,0.3744
744.0,0.3742
745.0,0.375
746.0,0.3766
747.0,0.3777
748.0,0.377
749.0,0.3727
750.0,0.3726
751.0,0.3688
752.0,0.3705
753.0,0.3725
754.0,0.3733
755.0,0.3712
756.0,0.3711
757.0,0.3716
758.0,0.3669
759.0,0.3547
760.0,0.01598
761.0,0.005569
762.0,0.1107
763.0,0.03277
764.0,0.06651
765.0,0.1105
766.0,0.1635
767.0,0.2404
768.0,0.309
769.0,0.3231
770.0,0.3428
771.0,0.3496
772.0,0.3516
773.0,0.3544
774.0,0.3529
775.0,0.3504
776.0,0.3548
777.0,0.3502
778.0,0.348
779.0,0.3483
780.0,0.3465
781.0,0.3469
782.0,0.3491
783.0,0.3432
784.0,0.345
785.0,0.3421
786.0,0.3456
787.0,0.336
788.0,0.3302
789.0,0.3299
790.0,0.3164
791.0,0.3239
792.0,0.3222
793.0,0.3165
794.0,0.3267
795.0,0.3309
796.0,0.3141
797.0,0.3139
798.0,0.3298
799.0,0.3264
800.0,0.3192
801.0,0.3166
802.0,0.3156
803.0,0.3123
804.0,0.3135
805.0,0.3145
806.0,0.3267
807.0,0.3221
808.0,0.3226
809.0,0.314
810.0,0.3098
811.0,0.3068
812.0,0.2934
813.0,0.2854
814.0,0.2388
815.0,0.2382
816.0,0.2201
817.0,0.2249
818.0,0.2136
819.0,0.2493
820.0,0.2311
821.0,0.286
822.0,0.2752
823.0,0.1638
824.0,0.2612
825.0,0.2811
826.0,0.2652
827.0,0.2851
828.0,0.2267
829.0,0.2647
830.0,0.26
831.0,0.261
832.0,0.2503
833.0,0.2732
834.0,0.2589
835.0,0.2955
836.0,0.2752
837.0,0.2965
838.0,0.2834
839.0,0.2926
840.0,0.3
841.0,0.2941
842.0,0.2973
843.0,0.2998
844.0,0.2942
845.0,0.3061
846.0,0.3052
847.0,0.3003
848.0,0.2973
849.0,0.2888
850.0,0.2768
851.0,0.2918
852.0,0.2904
853.0,0.2805
854.0,0.2413
855.0,0.2664
856.0,0.2906
857.0,0.2979
858.0,0.2953
859.0,0.2961
860.0,0.297
861.0,0.2953
862.0,0.3001
863.0,0.3072
864.0,0.2919
865.0,0.2895
866.0,0.2603
867.0,0.2716
868.0,0.2956
869.0,0.2896
870.0,0.2979
871.0,0.2938
872.0,0.2928
873.0,0.2923
874.0,0.2888
875.0,0.2829
876.0,0.2858
877.0,0.2887
878.0,0.2917
879.0,0.2872
880.0,0.2811
881.0,0.2763
882.0,0.282
883.0,0.2835
884.0,0.282
885.0,0.2841
886.0,0.2686
887.0,0.2732
888.0,0.2763
889.0,0.2812
890.0,0.2766
891.0,0.2772
892.0,0.2663
893.0,0.2552
894.0,0.24
895.0,0.2192
896.0,0.2046
897.0,0.1672
898.0,0.1865
899.0,0.1325
900.0,0.1966
901.0,0.1388
902.0,0.1754
903.0,0.1726
904.0,0.238
905.0,0.2272
906.0,0.2102
907.0,0.1568
908.0,0.1627
909.0,0.1816
910.0,0.1502
911.0,0.1681
912.0,0.1762
913.0,0.1519
914.0,0.1528
915.0,0.1647
916.0,0.1381
917.0,0.1853
918.0,0.1407
919.0,0.1923
920.0,0.2022
921.0,0.2097
922.0,0.1798
923.0,0.2035
924.0,0.1821
925.0,0.1787
926.0,0.1793
927.0,0.2082
928.0,0.1312
929.0,0.1143
930.0,0.08117
931.0,0.07698
932.0,0.0472
933.0,0.03501
934.0,0.01286
935.0,0.03841
936.0,0.01959
937.0,0.01971
938.0,0.02573
939.0,0.07436
940.0,0.09584
941.0,0.0644
942.0,0.07856
943.0,0.0458
944.0,0.05423
945.0,0.06816
946.0,0.02708
947.0,0.06635
948.0,0.04803
949.0,0.09669
950.0,0.01684
951.0,0.09615
952.0,0.04216
953.0,0.06072
954.0,0.08173
955.0,0.06221
956.0,0.06807
957.0,0.04175
958.0,0.1045
959.0,0.07359
960.0,0.08251
961.0,0.1001
962.0,0.0944
963.0,0.1155
964.0,0.1039
965.0,0.1148
966.0,0.1141
967.0,0.1125
968.0,0.178
969.0,0.1817
970.0,0.1646
971.0,0.2004
972.0,0.189
973.0,0.1524
974.0,0.1438
975.0,0.1531
976.0,0.1385
977.0,0.172
978.0,0.1574
979.0,0.1682
980.0,0.1564
981.0,0.1995
982.0,0.1863
983.0,0.1764
984.0,0.2113
985.0,0.1853
986.0,0.2186
987.0,0.2103
988.0,0.2103
989.0,0.2203
990.0,0.2088
991.0,0.2206
992.0,0.2222
993.0,0.2133
994.0,0.2226
995.0,0.223
996.0,0.2213
997.0,0.222
998.0,0.2207
999.0,0.2201
1000.0,0.2175
1001.0,0.2214
1002.0,0.2111
1003.0,0.2172
1004.0,0.2108
1005.0,0.2046
1006.0,0.2118
1007.0,0.2167
1008.0,0.2148
1009.0,0.2128
1010.0,0.2115
1011.0,0.2157
1012.0,0.2131
1013.0,0.2154
1014.0,0.2139
1015.0,0.2124
1016.0,0.2113
1017.0,0.2117
1018.0,0.2114
1019.0,0.2053
1020.0,0.21
1021.0,0.21
1022.0,0.2078
1023.0,0.2099
1024.0,0.2056
1025.0,0.2103
1026.0,0.209
1027.0,0.2086
1028.0,0.2081
1029.0,0.2054
1030.0,0.2074
1031.0,0.2064
1032.0,0.2059
1033.0,0.2028
1034.0,0.2029
1035.0,0.2035
1036.0,0.2044
1037.0,0.2011
1038.0,0.2019
1039.0,0.2017
1040.0,0.2009
1041.0,0.2015
1042.0,0.2001
1043.0,0.1994
1044.0,0.2
1045.0,0.1972
1046.0,0.1949
1047.0,0.1965
1048.0,0.1975
1049.0,0.1966
1050.0,0.1956
1051.0,0.1952
1052.0,0.1942
1053.0,0.1925
1054.0,0.1927
1055.0,0.1925
1056.0,0.1916
1057.0,0.1908
1058.0,0.1859
1059.0,0.1858
1060.0,0.1854
1061.0,0.185
1062.0,0.1857
1063.0,0.1837
1064.0,0.1859
1065.0,0.184
1066.0,0.1808
1067.0,0.183
1068.0,0.1786
1069.0,0.1734
1070.0,0.1789
1071.0,0.1831
1072.0,0.1799
1073.0,0.1775
1074.0,0.1837
1075.0,0.1705
1076.0,0.1833
1077.0,0.1779
1078.0,0.1734
1079.0,0.1812
1080.0,0.1752
1081.0,0.1675
1082.0,0.1736
1083.0,0.1751
1084.0,0.1663
1085.0,0.1759
1086.0,0.1553
1087.0,0.1637
1088.0,0.1743
1089.0,0.165
1090.0,0.1595
1091.0,0.1727
1092.0,0.173
1093.0,0.1366
1094.0,0.157
1095.0,0.1428
1096.0,0.134
1097.0,0.169
1098.0,0.1303
1099.0,0.1374
1100.0,0.124
1101.0,0.127
1102.0,0.1185
1103.0,0.1154
1104.0,0.1159
1105.0,0.1334
1106.0,0.08677
1107.0,0.1239
1108.0,0.09595
1109.0,0.0976
1110.0,0.1208
1111.0,0.06997
1112.0,0.09742
1113.0,0.05078
1114.0,0.05718
1115.0,0.04651
1116.0,0.03153
1117.0,0.00709
1118.0,0.03555
1119.0,0.01335
1120.0,0.01616
1121.0,0.02356
1122.0,0.006798
1123.0,0.01477
1124.0,0.0124
1125.0,0.01725
1126.0,0.003218
1127.0,0.01974
1128.0,0.008453
1129.0,0.009261
1130.0,0.005558
1131.0,0.04757
1132.0,0.03523
1133.0,0.01701
1134.0,0.002414
1135.0,0.001033
1136.0,0.01251
1137.0,0.04458
1138.0,0.03036
1139.0,0.05793
1140.0,0.04348
1141.0,0.02902
1142.0,0.03557
1143.0,0.0562
1144.0,0.01435
1145.0,0.01637
1146.0,0.0176
1147.0,0.003533
1148.0,0.04779
1149.0,0.03472
1150.0,0.01659
1151.0,0.03014
1152.0,0.04122
1153.0,0.04356
1154.0,0.01625
1155.0,0.06027
1156.0,0.05161
1157.0,0.06357
1158.0,0.06266
1159.0,0.07034
1160.0,0.05795
1161.0,0.07889
1162.0,0.07846
1163.0,0.1202
1164.0,0.09808
1165.0,0.08743
1166.0,0.0911
1167.0,0.1016
1168.0,0.1016
1169.0,0.1054
1170.0,0.119
1171.0,0.1159
1172.0,0.1211
1173.0,0.1188
1174.0,0.07502
1175.0,0.1189
1176.0,0.1369
1177.0,0.1271
1178.0,0.08788
1179.0,0.138
1180.0,0.1165
1181.0,0.1205
1182.0,0.07449
1183.0,0.1199
1184.0,0.1094
1185.0,0.1029
1186.0,0.1311
1187.0,0.1219
1188.0,0.07412
1189.0,0.1132
1190.0,0.1288
1191.0,0.1163
1192.0,0.1312
1193.0,0.1237
1194.0,0.1289
1195.0,0.1178
1196.0,0.1113
1197.0,0.1305
1198.0,0.1176
1199.0,0.09188
1200.0,0.1221
1201.0,0.1147
1202.0,0.1166
1203.0,0.114
1204.0,0.09636
1205.0,0.1216
1206.0,0.1383
1207.0,0.1151
1208.0,0.1158
1209.0,0.1186
1210.0,0.1255
1211.0,0.1166
1212.0,0.1105
1213.0,0.1315
1214.0,0.1149
1215.0,0.1123
1216.0,0.1316
1217.0,0.1266
1218.0,0.1304
1219.0,0.1278
1220.0,0.1307
1221.0,0.133
1222.0,0.1289
1223.0,0.1269
1224.0,0.1244
1225.0,0.1318
1226.0,0.134
1227.0,0.1192
1228.0,0.1356
1229.0,0.134
1230.0,0.1309
1231.0,0.1375
1232.0,0.1366
1233.0,0.1281
1234.0,0.1382
1235.0,0.1368
1236.0,0.1382
1237.0,0.1348
1238.0,0.1378
1239.0,0.136
1240.0,0.1367
1241.0,0.1351
1242.0,0.1357
1243.0,0.1346
1244.0,0.1353
1245.0,0.136
1246.0,0.1353
1247.0,0.1345
1248.0,0.1339
1249.0,0.1347
1250.0,0.1336
1251.0,0.1313
1252.0,0.1321
1253.0,0.1296
1254.0,0.1273
1255.0,0.1316
1256.0,0.1253
1257.0,0.1241
1258.0,0.1285
1259.0,0.1198
1260.0,0.1209
1261.0,0.1093
1262.0,0.1035
1263.0,0.1036
1264.0,0.09016
1265.0,0.103
1266.0,0.09587
1267.0,0.09984
1268.0,0.09109
1269.0,0.0376
1270.0,0.09858
1271.0,0.1096
1272.0,0.1104
1273.0,0.1087
1274.0,0.1098
1275.0,0.1123
1276.0,0.1143
1277.0,0.1164
1278.0,0.1205
1279.0,0.1193
1280.0,0.1179
1281.0,0.1134
1282.0,0.1108
1283.0,0.119
1284.0,0.1216
1285.0,0.1227
1286.0,0.1252
1287.0,0.1217
1288.0,0.1221
1289.0,0.1152
1290.0,0.1212
1291.0,0.1235
1292.0,0.1105
1293.0,0.1198
1294.0,0.1187
1295.0,0.1163
1296.0,0.1078
1297.0,0.09965
1298.0,0.1124
1299.0,0.1204
1300.0,0.09366
1301.0,0.09794
1302.0,0.1122
1303.0,0.09323
1304.0,0.07219
1305.0,0.1095
1306.0,0.1086
1307.0,0.07646
1308.0,0.09468
1309.0,0.1065
1310.0,0.0743
1311.0,0.08901
1312.0,0.08563
1313.0,0.08211
1314.0,0.07082
1315.0,0.06832
1316.0,0.08617
1317.0,0.08055
1318.0,0.09075
1319.0,0.06224
1320.0,0.06195
1321.0,0.07527
1322.0,0.07436
1323.0,0.0491
1324.0,0.06142
1325.0,0.08393
1326.0,0.06776
1327.0,0.06337
1328.0,0.05221
1329.0,0.03344
1330.0,0.04663
1331.0,0.0223
1332.0,0.02462
1333.0,0.03535
1334.0,0.03394
1335.0,0.04827
1336.0,0.03468
1337.0,0.02985
1338.0,0.03187
1339.0,0.0325
1340.0,0.03337
1341.0,0.02838
1342.0,0.03038
1343.0,0.01451
1344.0,0.009282
1345.0,0.01289
1346.0,0.003769
1347.0,0.003425
1348.0,7.681e-05
1349.0,0.000349
1350.0,0.000426
1351.0,3.912e-05
1352.0,3.184e-06
1353.0,9.047e-08
1354.0,5.086e-07
1355.0,1.568e-09
1356.0,4.38e-08
1357.0,6.599e-08
1358.0,1.87e-09
1359.0,2.063e-10
1360.0,7.874e-10
1361.0,8.205e-13
1362.0,2.243e-15
1363.0,1.008e-09
1364.0,4.202e-10
1365.0,7.828e-16
1366.0,4.441e-09
1367.0,1.907e-09
1368.0,6.045e-18
1369.0,1.55e-10
1370.0,7.478e-11
1371.0,4.207e-12
1372.0,1.046e-09
1373.0,2.617e-08
1374.0,1.728e-07
1375.0,2.698e-07
1376.0,4.715e-07
1377.0,1.954e-07
1378.0,1.999e-06
1379.0,8.571e-08
1380.0,7.921e-08
1381.0,1.838e-09
1382.0,8.962e-10
1383.0,1.307e-11
1384.0,1.661e-10
1385.0,9.879e-10
1386.0,7.59e-10
1387.0,1.235e-07
1388.0,3.141e-09
1389.0,7.302e-07
1390.0,5.735e-07
1391.0,3.787e-07
1392.0,2.486e-08
1393.0,1.688e-07
1394.0,3.921e-08
1395.0,2.574e-10
1396.0,1.069e-12
1397.0,5.44e-08
1398.0,1.951e-06
1399.0,1.323e-06
1400.0,4.565e-13
1401.0,1.899e-12
1402.0,1.362e-05
1403.0,1.256e-05
1404.0,3.235e-06
1405.0,1.126e-10
1406.0,5.239e-06
1407.0,9.239e-07
1408.0,4.725e-06
1409.0,8.744e-07
1410.0,1.302e-06
1411.0,1.181e-05
1412.0,2.281e-05
1413.0,0.0005328
1414.0,1.153e-06
1415.0,4.261e-07
1416.0,0.001847
1417.0,0.0003304
1418.0,0.0002659
1419.0,3.659e-05
1420.0,0.0001596
1421.0,0.0002261
1422.0,0.002405
1423.0,0.0004255
1424.0,0.0009284
1425.0,0.001116
1426.0,0.001744
1427.0,0.004107
1428.0,6.274e-05
