interpolation:linear
wavelength,value
280.0,2.188e-21
280.5,6.915000000000001e-20
281.0,3.659e-19
281.5,3.961e-19
282.0,1.025e-18
282.5,2.655e-18
283.0,8.525e-18
283.5,1.392e-17
284.0,2.264e-16
284.5,6.54e-16
285.0,1.44e-15
285.5,6.926e-15
286.0,2.764e-14
286.5,1.217e-13
287.0,3.444e-13
287.5,1.303e-12
288.0,3.601e-12
288.5,1.175e-11
289.0,3.291e-11
289.5,1.031e-10
290.0,2.925e-10
290.5,6.051e-10
291.0,1.316e-09
291.5,3.825e-09
292.0,7.941e-09
292.5,1.182e-08
293.0,2.73e-08
293.5,7.329e-08
294.0,1.228e-07
294.5,1.592e-07
295.0,2.879e-07
295.5,7.176e-07
296.0,1.436e-06
296.5,2.093e-06
297.0,2.943e-06
297.5,8.412e-06
298.0,1.409e-05
298.5,1.492e-05
299.0,3.47e-05
299.5,6.375e-05
300.0,7.466e-05
300.5,0.0001159
301.0,0.0002381
301.5,0.0004358
302.0,0.0004059
302.5,0.0008057
303.0,0.001478
303.5,0.001887
304.0,0.001791
304.5,0.002743
305.0,0.004304
305.5,0.005035
306.0,0.004913
306.5,0.0062
307.0,0.009461
307.5,0.01291
308.0,0.0137
308.5,0.01638
309.0,0.01622
309.5,0.01883
310.0,0.01904
310.5,0.03095
311.0,0.03907
311.5,0.03781
312.0,0.03825
312.5,0.0469
313.0,0.05108
313.5,0.04944
314.0,0.06237
314.5,0.05596
315.0,0.0737
315.5,0.06133
316.0,0.05406
316.5,0.07825
317.0,0.09716
317.5,0.1009
318.0,0.07915
318.5,0.09925
319.0,0.1184
319.5,0.09577
320.0,0.1156
320.5,0.1461
321.0,0.1312
321.5,0.126
322.0,0.1331
322.5,0.1159
323.0,0.1161
323.5,0.1434
324.0,0.1676
324.5,0.1698
325.0,0.1463
325.5,0.1891
326.0,0.2315
326.5,0.2325
327.0,0.2315
327.5,0.2234
328.0,0.1983
328.5,0.2093
329.0,0.2515
329.5,0.2858
330.0,0.2881
330.5,0.2301
331.0,0.2343
331.5,0.2386
332.0,0.2586
332.5,0.2561
333.0,0.2552
333.5,0.2306
334.0,0.2363
334.5,0.2733
335.0,0.2572
335.5,0.3005
336.0,0.208
336.5,0.2434
337.0,0.1996
337.5,0.2483
338.0,0.2429
338.5,0.2805
339.0,0.2777
339.5,0.2672
340.0,0.3141
340.5,0.2832
341.0,0.2763
341.5,0.2538
342.0,0.3034
342.5,0.284
343.0,0.3123
343.5,0.2942
344.0,0.2175
344.5,0.2197
345.0,0.2909
345.5,0.2971
346.0,0.2526
346.5,0.2862
347.0,0.3073
347.5,0.2485
348.0,0.2835
348.5,0.2834
349.0,0.263
349.5,0.2605
350.0,0.3224
350.5,0.3401
351.0,0.3039
351.5,0.2954
352.0,0.3174
352.5,0.2478
353.0,0.3123
353.5,0.334
354.0,0.3469
354.5,0.3519
355.0,0.3508
355.5,0.317
356.0,0.3318
356.5,0.2834
357.0,0.2342
357.5,0.2868
358.0,0.2274
358.5,0.1943
359.0,0.2719
359.5,0.3465
360.0,0.3674
360.5,0.2938
361.0,0.2679
361.5,0.3087
362.0,0.2671
362.5,0.3698
363.0,0.3323
363.5,0.3062
364.0,0.3747
364.5,0.3204
365.0,0.3264
365.5,0.4098
366.0,0.4344
366.5,0.4083
367.0,0.3978
367.5,0.4129
368.0,0.3615
368.5,0.3649
369.0,0.3942
369.5,0.4203
370.0,0.4482
370.5,0.348
371.0,0.372
371.5,0.4655
372.0,0.309
372.5,0.3707
373.0,0.3772
373.5,0.2455
374.0,0.3569
374.5,0.2957
375.0,0.2875
375.5,0.4294
376.0,0.356
376.5,0.369
377.0,0.3909
377.5,0.4574
378.0,0.496
378.5,0.4689
379.0,0.3871
379.5,0.3536
380.0,0.3677
380.5,0.4456
381.0,0.4467
381.5,0.3543
382.0,0.3148
382.5,0.2685
383.0,0.2487
383.5,0.2396
384.0,0.2644
384.5,0.389
385.0,0.3859
385.5,0.3595
386.0,0.308
386.5,0.4048
387.0,0.3364
387.5,0.378
388.0,0.3491
388.5,0.3452
389.0,0.3728
389.5,0.4516
390.0,0.4534
390.5,0.4174
391.0,0.4915
391.5,0.5015
392.0,0.4225
392.5,0.3784
393.0,0.2106
393.5,0.1532
394.0,0.3118
394.5,0.3965
395.0,0.484
395.5,0.4917
396.0,0.4265
396.5,0.2494
397.0,0.1872
397.5,0.3809
398.0,0.5335
398.5,0.5516
399.0,0.5976
399.5,0.5958
400.0,0.6187
401.0,0.6269
402.0,0.6618
403.0,0.6291
404.0,0.6197
405.0,0.6199
406.0,0.6103
407.0,0.6008
408.0,0.6244
409.0,0.6687
410.0,0.5846
411.0,0.6335
412.0,0.6809
413.0,0.6642
414.0,0.6727
415.0,0.6749
416.0,0.6871
417.0,0.6704
418.0,0.6583
419.0,0.6673
420.0,0.6646
421.0,0.6956
422.0,0.6614
423.0,0.6463
424.0,0.6838
425.0,0.6828
426.0,0.6656
427.0,0.6533
428.0,0.6366
429.0,0.6034
430.0,0.5283
431.0,0.5237
432.0,0.6765
433.0,0.6804
434.0,0.632
435.0,0.6601
436.0,0.7442
437.0,0.7346
438.0,0.6692
439.0,0.692
440.0,0.7143
441.0,0.7405
442.0,0.7944
443.0,0.7737
444.0,0.7908
445.0,0.7738
446.0,0.7389
447.0,0.7991
448.0,0.8115
449.0,0.8152
450.0,0.8383
451.0,0.8696
452.0,0.838
453.0,0.7884
454.0,0.8234
455.0,0.8285
456.0,0.8484
457.0,0.8626
458.0,0.8331
459.0,0.829
460.0,0.8312
461.0,0.8505
462.0,0.8573
463.0,0.8514
464.0,0.8378
465.0,0.8275
466.0,0.8358
467.0,0.8205
468.0,0.8302
469.0,0.8347
470.0,0.808
471.0,0.8071
472.0,0.8505
473.0,0.8395
474.0,0.8405
475.0,0.8475
476.0,0.8219
477.0,0.824
478.0,0.847
479.0,0.8421
480.0,0.8439
481.0,0.8599
482.0,0.8647
483.0,0.8547
484.0,0.8373
485.0,0.798
486.0,0.6978
487.0,0.7315
488.0,0.8025
489.0,0.8049
490.0,0.847
491.0,0.8326
492.0,0.7863
493.0,0.8121
494.0,0.8203
495.0,0.8273
496.0,0.8325
497.0,0.8454
498.0,0.8058
499.0,0.8161
500.0,0.7921
501.0,0.7774
502.0,0.7662
503.0,0.797
504.0,0.7756
505.0,0.8043
506.0,0.8303
507.0,0.7901
508.0,0.7659
509.0,0.7876
510.0,0.7837
511.0,0.805
512.0,0.8138
513.0,0.7703
514.0,0.7652
515.0,0.7576
516.0,0.7557
517.0,0.6715
518.0,0.706
519.0,0.7405
520.0,0.7674
521.0,0.7746
522.0,0.7752
523.0,0.7612
524.0,0.7883
525.0,0.7973
526.0,0.7615
527.0,0.7174
528.0,0.7585
529.0,0.7994
530.0,0.7878
531.0,0.7994
532.0,0.7719
533.0,0.7493
534.0,0.7715
535.0,0.7885
536.0,0.7959
537.0,0.7646
538.0,0.7782
539.0,0.7716
540.0,0.7397
541.0,0.7443
542.0,0.7675
543.0,0.7596
544.0,0.7725
545.0,0.7702
546.0,0.7733
547.0,0.7732
548.0,0.7641
549.0,0.7665
550.0,0.7756
551.0,0.7663
552.0,0.7716
553.0,0.7577
554.0,0.7759
555.0,0.7773
556.0,0.7672
557.0,0.7432
558.0,0.7375
559.0,0.7235
560.0,0.7324
561.0,0.7417
562.0,0.7362
563.0,0.756
564.0,0.7352
565.0,0.7287
566.0,0.7178
567.0,0.7312
568.0,0.7241
569.0,0.7057
570.0,0.7057
571.0,0.7017
572.0,0.7178
573.0,0.7253
574.0,0.7228
575.0,0.709
576.0,0.7026
577.0,0.7104
578.0,0.7
579.0,0.7034
580.0,0.7176
581.0,0.722
582.0,0.7362
583.0,0.7385
584.0,0.7452
585.0,0.7272
586.0,0.7123
587.0,0.7275
588.0,0.7083
589.0,0.6246
590.0,0.6534
591.0,0.6932
592.0,0.6834
593.0,0.6949
594.0,0.6895
595.0,0.6714
596.0,0.7003
597.0,0.6921
598.0,0.6911
599.0,0.692
600.0,0.6936
601.0,0.6884
602.0,0.6838
603.0,0.6954
604.0,0.707
605.0,0.7035
606.0,0.7008
607.0,0.7081
608.0,0.7005
609.0,0.7019
610.0,0.6972
611.0,0.7009
612.0,0.699
613.0,0.6904
614.0,0.6812
615.0,0.6962
616.0,0.6735
617.0,0.6722
618.0,0.6982
619.0,0.6912
620.0,0.6956
621.0,0.6961
622.0,0.6877
623.0,0.6771
624.0,0.6656
625.0,0.6642
626.0,0.6739
627.0,0.6809
628.0,0.6293
629.0,0.6625
630.0,0.647
631.0,0.6639
632.0,0.6563
633.0,0.6772
634.0,0.6714
635.0,0.6822
636.0,0.6736
637.0,0.6849
638.0,0.692
639.0,0.6845
640.0,0.6782
641.0,0.678
642.0,0.6752
643.0,0.6843
644.0,0.6824
645.0,0.6833
646.0,0.6666
647.0,0.6569
648.0,0.6574
649.0,0.6445
650.0,0.65
651.0,0.6786
652.0,0.6479
653.0,0.6697
654.0,0.6625
655.0,0.6365
656.0,0.565
657.0,0.5804
658.0,0.6511
659.0,0.6561
660.0,0.659
661.0,0.6637
662.0,0.6646
663.0,0.6516
664.0,0.66
665.0,0.6611
666.0,0.6618
667.0,0.6614
668.0,0.662
669.0,0.6724
670.0,0.6696
671.0,0.6696
672.0,0.6639
673.0,0.674
674.0,0.6716
675.0,0.6656
676.0,0.6703
677.0,0.6637
678.0,0.6657
679.0,0.655
680.0,0.6603
681.0,0.656
682.0,0.6552
683.0,0.6539
684.0,0.6507
685.0,0.6564
686.0,0.6523
687.0,0.4046
688.0,0.4874
689.0,0.4896
690.0,0.5181
691.0,0.5505
692.0,0.5748
693.0,0.5697
694.0,0.5651
695.0,0.5921
696.0,0.593
697.0,0.6336
698.0,0.6236
699.0,0.6059
700.0,0.5985
701.0,0.5914
702.0,0.5966
703.0,0.5978
704.0,0.6187
705.0,0.6196
706.0,0.6197
707.0,0.6204
708.0,0.6217
709.0,0.6237
710.0,0.6231
711.0,0.6226
712.0,0.6213
713.0,0.6145
714.0,0.617
715.0,0.5964
716.0,0.5964
717.0,0.5069
718.0,0.4642
719.0,0.4243
720.0,0.4435
721.0,0.4958
722.0,0.574
723.0,0.5309
724.0,0.4743
725.0,0.4653
726.0,0.4876
727.0,0.4972
728.0,0.4636
729.0,0.4847
730.0,0.5126
731.0,0.4894
732.0,0.5274
733.0,0.562
734.0,0.5764
735.0,0.5639
736.0,0.5632
737.0,0.5653
738.0,0.5767
739.0,0.5653
740.0,0.5808
741.0,0.5755
742.0,0.5766
743.0,0.5914
744.0,0.59
745.0,0.5904
746.0,0.5931
747.0,0.5944
748.0,0.5932
749.0,0.5865
750.0,0.5861
751.0,0.5802
752.0,0.5828
753.0,0.5857
754.0,0.5871
755.0,0.5837
756.0,0.5835
757.0,0.5843
758.0,0.577
759.0,0.5637
760.0,0.06924
761.0,0.03255
762.0,0.258
763.0,0.1139
764.0,0.184
765.0,0.2579
766.0,0.3305
767.0,0.4317
768.0,0.5105
769.0,0.524
770.0,0.545
771.0,0.5508
772.0,0.5525
773.0,0.5564
774.0,0.5538
775.0,0.5497
776.0,0.5564
777.0,0.5491
778.0,0.5458
779.0,0.5462
780.0,0.5432
781.0,0.5438
782.0,0.5472
783.0,0.5377
784.0,0.5403
785.0,0.5362
786.0,0.542
787.0,0.5313
788.0,0.5241
789.0,0.5238
790.0,0.508
791.0,0.5142
792.0,0.5106
793.0,0.5022
794.0,0.5127
795.0,0.5208
796.0,0.5023
797.0,0.5028
798.0,0.5199
799.0,0.5161
800.0,0.5066
801.0,0.5044
802.0,0.503
803.0,0.4988
804.0,0.4998
805.0,0.499
806.0,0.5142
807.0,0.5077
808.0,0.5083
809.0,0.4978
810.0,0.4931
811.0,0.4924
812.0,0.4767
813.0,0.4658
814.0,0.4045
815.0,0.4023
816.0,0.3738
817.0,0.3812
818.0,0.3657
819.0,0.4134
820.0,0.3876
821.0,0.4596
822.0,0.4454
823.0,0.2927
824.0,0.43
825.0,0.4514
826.0,0.4323
827.0,0.4583
828.0,0.3825
829.0,0.4301
830.0,0.4239
831.0,0.4255
832.0,0.4113
833.0,0.4406
834.0,0.423
835.0,0.4691
836.0,0.4462
837.0,0.4706
838.0,0.4546
839.0,0.4638
840.0,0.4744
841.0,0.467
842.0,0.469
843.0,0.4697
844.0,0.4626
845.0,0.479
846.0,0.4771
847.0,0.4685
848.0,0.4651
849.0,0.4519
850.0,0.433
851.0,0.458
852.0,0.455
853.0,0.4383
854.0,0.3781
855.0,0.4159
856.0,0.4543
857.0,0.4648
858.0,0.4612
859.0,0.4618
860.0,0.4628
861.0,0.4602
862.0,0.4675
863.0,0.4785
864.0,0.4546
865.0,0.4507
866.0,0.4053
867.0,0.4229
868.0,0.4602
869.0,0.4507
870.0,0.4636
871.0,0.4573
872.0,0.4557
873.0,0.4548
874.0,0.4494
875.0,0.4402
876.0,0.4448
877.0,0.4493
878.0,0.4541
879.0,0.4472
880.0,0.4376
881.0,0.4308
882.0,0.44
883.0,0.4416
884.0,0.4395
885.0,0.4428
886.0,0.4212
887.0,0.4263
888.0,0.4322
889.0,0.4379
890.0,0.4333
891.0,0.433
892.0,0.4193
893.0,0.4049
894.0,0.388
895.0,0.3633
896.0,0.3411
897.0,0.2889
898.0,0.3175
899.0,0.2366
900.0,0.3277
901.0,0.2481
902.0,0.2977
903.0,0.2984
904.0,0.3851
905.0,0.3705
906.0,0.3456
907.0,0.2744
908.0,0.2809
909.0,0.3071
910.0,0.2663
911.0,0.2874
912.0,0.3013
913.0,0.27
914.0,0.2687
915.0,0.2913
916.0,0.2454
917.0,0.317
918.0,0.2513
919.0,0.3243
920.0,0.331
921.0,0.3445
922.0,0.304
923.0,0.333
924.0,0.311
925.0,0.3043
926.0,0.3073
927.0,0.3479
928.0,0.2441
929.0,0.2198
930.0,0.168
931.0,0.1597
932.0,0.11
933.0,0.08702
934.0,0.04274
935.0,0.09102
936.0,0.05361
937.0,0.05405
938.0,0.06769
939.0,0.1546
940.0,0.1895
941.0,0.1383
942.0,0.163
943.0,0.1035
944.0,0.1125
945.0,0.1436
946.0,0.06817
947.0,0.1429
948.0,0.1044
949.0,0.1962
950.0,0.04735
951.0,0.194
952.0,0.09787
953.0,0.1306
954.0,0.1649
955.0,0.1326
956.0,0.1322
957.0,0.0975
958.0,0.1934
959.0,0.1481
960.0,0.1661
961.0,0.1908
962.0,0.18
963.0,0.2113
964.0,0.1924
965.0,0.2108
966.0,0.21
967.0,0.2087
968.0,0.2937
969.0,0.3053
970.0,0.2787
971.0,0.3252
972.0,0.3098
973.0,0.2636
974.0,0.2494
975.0,0.2612
976.0,0.2446
977.0,0.2852
978.0,0.2681
979.0,0.2827
980.0,0.2647
981.0,0.3235
982.0,0.307
983.0,0.2935
984.0,0.336
985.0,0.3059
986.0,0.3435
987.0,0.3349
988.0,0.3344
989.0,0.3435
990.0,0.3323
991.0,0.3443
992.0,0.3465
993.0,0.3369
994.0,0.3466
995.0,0.3464
996.0,0.3446
997.0,0.3453
998.0,0.3435
999.0,0.3424
1000.0,0.3395
1001.0,0.3442
1002.0,0.333
1003.0,0.3381
1004.0,0.3293
1005.0,0.3179
1006.0,0.33
1007.0,0.3372
1008.0,0.335
1009.0,0.3328
1010.0,0.3312
1011.0,0.3355
1012.0,0.3322
1013.0,0.3348
1014.0,0.3324
1015.0,0.3302
1016.0,0.3286
1017.0,0.3294
1018.0,0.3284
1019.0,0.3207
1020.0,0.3266
1021.0,0.3262
1022.0,0.3234
1023.0,0.3268
1024.0,0.3219
1025.0,0.3268
1026.0,0.3253
1027.0,0.3246
1028.0,0.3238
1029.0,0.3199
1030.0,0.3224
1031.0,0.321
1032.0,0.3201
1033.0,0.3153
1034.0,0.3153
1035.0,0.3163
1036.0,0.3179
1037.0,0.3127
1038.0,0.3141
1039.0,0.3139
1040.0,0.3126
1041.0,0.3138
1042.0,0.3116
1043.0,0.3105
1044.0,0.3116
1045.0,0.3073
1046.0,0.3039
1047.0,0.3066
1048.0,0.3082
1049.0,0.307
1050.0,0.3056
1051.0,0.3051
1052.0,0.3037
1053.0,0.3012
1054.0,0.3018
1055.0,0.3019
1056.0,0.3007
1057.0,0.2997
1058.0,0.2922
1059.0,0.2924
1060.0,0.2919
1061.0,0.2915
1062.0,0.2929
1063.0,0.2899
1064.0,0.2934
1065.0,0.291
1066.0,0.2855
1067.0,0.2891
1068.0,0.2826
1069.0,0.274
1070.0,0.2831
1071.0,0.2882
1072.0,0.2843
1073.0,0.2803
1074.0,0.2883
1075.0,0.272
1076.0,0.288
1077.0,0.2817
1078.0,0.2759
1079.0,0.2837
1080.0,0.2774
1081.0,0.2676
1082.0,0.2735
1083.0,0.2748
1084.0,0.2665
1085.0,0.2782
1086.0,0.2512
1087.0,0.2612
1088.0,0.2741
1089.0,0.264
1090.0,0.2571
1091.0,0.2728
1092.0,0.2725
1093.0,0.226
1094.0,0.2486
1095.0,0.2359
1096.0,0.2245
1097.0,0.2662
1098.0,0.2203
1099.0,0.2306
1100.0,0.2123
1101.0,0.2156
1102.0,0.2045
1103.0,0.2016
1104.0,0.2019
1105.0,0.2249
1106.0,0.1637
1107.0,0.212
1108.0,0.1747
1109.0,0.176
1110.0,0.2093
1111.0,0.1354
1112.0,0.175
1113.0,0.1048
1114.0,0.1177
1115.0,0.09723
1116.0,0.07383
1117.0,0.02332
1118.0,0.08151
1119.0,0.03721
1120.0,0.04652
1121.0,0.06362
1122.0,0.02407
1123.0,0.04218
1124.0,0.03556
1125.0,0.04719
1126.0,0.01382
1127.0,0.05348
1128.0,0.02908
1129.0,0.03122
1130.0,0.01964
1131.0,0.1088
1132.0,0.08395
1133.0,0.0492
1134.0,0.01057
1135.0,0.004087
1136.0,0.03966
1137.0,0.1054
1138.0,0.07355
1139.0,0.1178
1140.0,0.09533
1141.0,0.06997
1142.0,0.08208
1143.0,0.12
1144.0,0.03814
1145.0,0.04751
1146.0,0.05119
1147.0,0.01536
1148.0,0.1036
1149.0,0.08034
1150.0,0.04155
1151.0,0.07295
1152.0,0.09262
1153.0,0.09246
1154.0,0.04585
1155.0,0.1228
1156.0,0.1089
1157.0,0.1251
1158.0,0.1237
1159.0,0.1353
1160.0,0.1137
1161.0,0.1445
1162.0,0.1449
1163.0,0.2032
1164.0,0.1716
1165.0,0.1592
1166.0,0.1601
1167.0,0.1757
1168.0,0.177
1169.0,0.1821
1170.0,0.2001
1171.0,0.1949
1172.0,0.1998
1173.0,0.1997
1174.0,0.1373
1175.0,0.1962
1176.0,0.2185
1177.0,0.2079
1178.0,0.1522
1179.0,0.2203
1180.0,0.1936
1181.0,0.2
1182.0,0.1337
1183.0,0.1976
1184.0,0.1837
1185.0,0.176
1186.0,0.213
1187.0,0.2015
1188.0,0.1354
1189.0,0.1875
1190.0,0.2083
1191.0,0.1953
1192.0,0.2115
1193.0,0.2018
1194.0,0.2085
1195.0,0.1955
1196.0,0.1873
1197.0,0.2095
1198.0,0.1906
1199.0,0.1585
1200.0,0.1991
1201.0,0.1908
1202.0,0.1906
1203.0,0.1886
1204.0,0.1632
1205.0,0.1961
1206.0,0.2185
1207.0,0.1897
1208.0,0.1878
1209.0,0.1919
1210.0,0.2007
1211.0,0.1898
1212.0,0.1858
1213.0,0.2104
1214.0,0.191
1215.0,0.1871
1216.0,0.2099
1217.0,0.2037
1218.0,0.2081
1219.0,0.2052
1220.0,0.2084
1221.0,0.2109
1222.0,0.2051
1223.0,0.2028
1224.0,0.201
1225.0,0.2094
1226.0,0.2113
1227.0,0.1932
1228.0,0.2128
1229.0,0.2113
1230.0,0.2074
1231.0,0.2145
1232.0,0.2131
1233.0,0.2043
1234.0,0.2146
1235.0,0.213
1236.0,0.2147
1237.0,0.2111
1238.0,0.214
1239.0,0.2113
1240.0,0.2121
1241.0,0.2108
1242.0,0.2106
1243.0,0.2089
1244.0,0.2103
1245.0,0.2113
1246.0,0.2101
1247.0,0.2092
1248.0,0.2088
1249.0,0.2096
1250.0,0.2083
1251.0,0.2054
1252.0,0.2057
1253.0,0.2035
1254.0,0.2011
1255.0,0.2053
1256.0,0.1986
1257.0,0.1973
1258.0,0.2018
1259.0,0.193
1260.0,0.1942
1261.0,0.1814
1262.0,0.175
1263.0,0.1753
1264.0,0.1596
1265.0,0.1742
1266.0,0.1663
1267.0,0.1701
1268.0,0.1599
1269.0,0.09004
1270.0,0.1692
1271.0,0.181
1272.0,0.1818
1273.0,0.1797
1274.0,0.1806
1275.0,0.1835
1276.0,0.1857
1277.0,0.1874
1278.0,0.1917
1279.0,0.1899
1280.0,0.1876
1281.0,0.1793
1282.0,0.1734
1283.0,0.1866
1284.0,0.1909
1285.0,0.1923
1286.0,0.1952
1287.0,0.1916
1288.0,0.1917
1289.0,0.1845
1290.0,0.1901
1291.0,0.193
1292.0,0.1792
1293.0,0.1887
1294.0,0.1873
1295.0,0.1857
1296.0,0.176
1297.0,0.1654
1298.0,0.1802
1299.0,0.1891
1300.0,0.1565
1301.0,0.162
1302.0,0.1797
1303.0,0.1549
1304.0,0.1287
1305.0,0.1758
1306.0,0.1755
1307.0,0.1328
1308.0,0.1557
1309.0,0.1738
1310.0,0.13
1311.0,0.1485
1312.0,0.1439
1313.0,0.1405
1314.0,0.1246
1315.0,0.1222
1316.0,0.1455
1317.0,0.1374
1318.0,0.1508
1319.0,0.1138
1320.0,0.1111
1321.0,0.1308
1322.0,0.1314
1323.0,0.09555
1324.0,0.1117
1325.0,0.1431
1326.0,0.1207
1327.0,0.1146
1328.0,0.09767
1329.0,0.07039
1330.0,0.09314
1331.0,0.05282
1332.0,0.05565
1333.0,0.07818
1334.0,0.06812
1335.0,0.09505
1336.0,0.07331
1337.0,0.06402
1338.0,0.0692
1339.0,0.06939
1340.0,0.06847
1341.0,0.06459
1342.0,0.06807
1343.0,0.04191
1344.0,0.02543
1345.0,0.03671
1346.0,0.01581
1347.0,0.01566
1348.0,0.0007392
1349.0,0.002894
1350.0,0.003195
1351.0,0.0005808
1352.0,0.0001115
1353.0,4.136e-06
1354.0,1.787e-05
1355.0,7.162e-08
1356.0,1.986e-06
1357.0,3.039e-06
1358.0,8.729e-08
1359.0,6.412e-09
1360.0,3.296e-08
1361.0,1.232e-11
1362.0,2.231e-14
1363.0,3.646e-08
1364.0,1.522e-08
1365.0,4.45e-15
1366.0,1.835e-07
1367.0,8.569e-08
1368.0,1.413e-17
1369.0,5.588e-09
1370.0,2.195e-09
1371.0,9.677e-11
1372.0,4.762e-08
1373.0,1.365e-06
1374.0,8.124e-06
1375.0,1.428e-05
1376.0,1.633e-05
1377.0,7.114e-06
1378.0,7.576e-05
1379.0,2.989e-06
1380.0,3.649e-06
1381.0,8.434e-08
1382.0,4.015e-08
1383.0,5.08e-10
1384.0,5.729e-09
1385.0,4.976e-08
1386.0,3.03e-08
1387.0,7.069e-06
1388.0,1.469e-07
1389.0,3.218e-05
1390.0,2.728e-05
1391.0,1.751e-05
1392.0,1.077e-06
1393.0,6.488e-06
1394.0,2.193e-06
1395.0,1.261e-08
1396.0,2.057e-11
1397.0,2.347e-06
1398.0,8.224e-05
1399.0,5.289e-05
1400.0,6.611e-12
1401.0,4.109e-11
1402.0,0.0002131
1403.0,0.0002489
1404.0,7.336e-05
1405.0,5.044e-09
1406.0,0.0001684
1407.0,1.681e-05
1408.0,0.0001412
1409.0,3.861e-05
1410.0,3.623e-05
1411.0,0.0002223
1412.0,0.0003309
1413.0,0.004474
1414.0,2.943e-05
1415.0,1.289e-05
1416.0,0.008892
1417.0,0.002236
1418.0,0.00242
1419.0,0.0003593
1420.0,0.001468
1421.0,0.001628
1422.0,0.01168
1423.0,0.002157
1424.0,0.004186
1425.0,0.00589
1426.0,0.007292
1427.0,0.01474
1428.0,0.0006731
1429.0,0.01031
1430.0,0.01945
1431.0,0.02184
1432.0,0.0005226
1433.0,0.01326
1434.0,0.006438
1435.0,0.005421
1436.0,0.01199
