interpolation:linear
wavelength,value
280.0,1.756e-22
280.5,5.809e-21
281.0,3.1220000000000005e-20
281.5,3.881e-19
282.0,5.895e-19
282.5,1.456e-18
283.0,4.604e-18
283.5,7.501e-18
284.0,1.24e-16
284.5,3.625e-16
285.0,5.981e-16
285.5,2.976e-15
286.0,1.2e-14
286.5,5.412e-14
287.0,1.556e-13
287.5,6.011e-13
288.0,2.13e-12
288.5,6.326e-12
289.0,1.666e-11
289.5,4.997e-11
290.0,1.383e-10
290.5,2.815e-10
291.0,6.039e-10
291.5,1.733e-09
292.0,3.476e-09
292.5,4.874e-09
293.0,1.045e-08
293.5,2.541e-08
294.0,3.974e-08
294.5,5.406e-08
295.0,9.159e-08
295.5,1.515e-07
296.0,2.926e-07
296.5,4.094e-07
297.0,5.541e-07
297.5,1.488e-06
298.0,2.346e-06
298.5,2.36e-06
299.0,5.203e-06
299.5,8.637e-06
300.0,9.49e-06
300.5,1.373e-05
301.0,2.476e-05
301.5,3.926e-05
302.0,3.344e-05
302.5,6.673e-05
303.0,0.0001236
303.5,0.0001601
304.0,0.0001556
304.5,0.0002546
305.0,0.0004412
305.5,0.000551
306.0,0.0005516
306.5,0.0007273
307.0,0.001227
307.5,0.00185
308.0,0.001994
308.5,0.002508
309.0,0.002731
309.5,0.003553
310.0,0.003785
310.5,0.00631
311.0,0.008306
311.5,0.008185
312.0,0.009066
312.5,0.0118
313.0,0.01326
313.5,0.01246
314.0,0.01689
314.5,0.01665
315.0,0.0223
315.5,0.01772
316.0,0.01686
316.5,0.02607
317.0,0.03232
317.5,0.03293
318.0,0.02702
318.5,0.03692
319.0,0.04599
319.5,0.03468
320.0,0.04142
320.5,0.05716
321.0,0.05557
321.5,0.05375
322.0,0.05214
322.5,0.04558
323.0,0.04827
323.5,0.06309
324.0,0.0744
324.5,0.07363
325.0,0.06141
325.5,0.08299
326.0,0.1034
326.5,0.1071
327.0,0.1054
327.5,0.1003
328.0,0.08551
328.5,0.09475
329.0,0.1183
329.5,0.1361
330.0,0.1359
330.5,0.1053
331.0,0.1062
331.5,0.1105
332.0,0.1237
332.5,0.1243
333.0,0.1229
333.5,0.1084
334.0,0.1106
334.5,0.1315
335.0,0.1257
335.5,0.1476
336.0,0.1022
336.5,0.1181
337.0,0.09574
337.5,0.1186
338.0,0.1187
338.5,0.138
339.0,0.1369
339.5,0.1316
340.0,0.1537
340.5,0.1389
341.0,0.1363
341.5,0.1255
342.0,0.1502
342.5,0.1407
343.0,0.1545
343.5,0.1454
344.0,0.1069
344.5,0.1084
345.0,0.144
345.5,0.1473
346.0,0.1254
346.5,0.1422
347.0,0.1525
347.5,0.1233
348.0,0.1409
348.5,0.1411
349.0,0.131
349.5,0.1298
350.0,0.1607
350.5,0.1696
351.0,0.1514
351.5,0.1469
352.0,0.1581
352.5,0.1236
353.0,0.156
353.5,0.167
354.0,0.1735
354.5,0.176
355.0,0.1754
355.5,0.1587
356.0,0.1662
356.5,0.142
357.0,0.1173
357.5,0.1437
358.0,0.114
358.5,0.09745
359.0,0.1363
359.5,0.1737
360.0,0.1843
360.5,0.1474
361.0,0.1345
361.5,0.1551
362.0,0.1343
362.5,0.1861
363.0,0.1674
363.5,0.1543
364.0,0.1889
364.5,0.1616
365.0,0.1647
365.5,0.2068
366.0,0.2193
366.5,0.2063
367.0,0.2011
367.5,0.2088
368.0,0.1829
368.5,0.1846
369.0,0.1996
369.5,0.2129
370.0,0.2271
370.5,0.1764
371.0,0.1887
371.5,0.2362
372.0,0.1569
372.5,0.1883
373.0,0.1917
373.5,0.1248
374.0,0.1815
374.5,0.1505
375.0,0.1464
375.5,0.2186
376.0,0.1813
376.5,0.188
377.0,0.1993
377.5,0.2333
378.0,0.253
378.5,0.2393
379.0,0.1975
379.5,0.1805
380.0,0.1878
380.5,0.2277
381.0,0.2284
381.5,0.1813
382.0,0.1612
382.5,0.1376
383.0,0.1275
383.5,0.1229
384.0,0.1357
384.5,0.1997
385.0,0.1982
385.5,0.1848
386.0,0.1584
386.5,0.2083
387.0,0.1732
387.5,0.1946
388.0,0.1799
388.5,0.1779
389.0,0.1922
389.5,0.233
390.0,0.234
390.5,0.2156
391.0,0.2539
391.5,0.2592
392.0,0.2184
392.5,0.1958
393.0,0.109
393.5,0.07933
394.0,0.1615
394.5,0.2056
395.0,0.251
395.5,0.2551
396.0,0.2214
396.5,0.1296
397.0,0.09731
397.5,0.198
398.0,0.2774
398.5,0.287
399.0,0.3112
399.5,0.3104
400.0,0.3223
401.0,0.3246
402.0,0.3432
403.0,0.3266
404.0,0.322
405.0,0.3223
406.0,0.3177
407.0,0.3131
408.0,0.3256
409.0,0.3489
410.0,0.3054
411.0,0.3313
412.0,0.3565
413.0,0.348
414.0,0.3528
415.0,0.3543
416.0,0.3612
417.0,0.3527
418.0,0.3465
419.0,0.3516
420.0,0.3505
421.0,0.3671
422.0,0.3493
423.0,0.3416
424.0,0.3616
425.0,0.3614
426.0,0.3528
427.0,0.3466
428.0,0.3379
429.0,0.3208
430.0,0.2811
431.0,0.2787
432.0,0.3605
433.0,0.3629
434.0,0.3372
435.0,0.3523
436.0,0.3977
437.0,0.3931
438.0,0.3584
439.0,0.3703
440.0,0.3826
441.0,0.3971
442.0,0.4262
443.0,0.415
444.0,0.4247
445.0,0.4156
446.0,0.3975
447.0,0.4306
448.0,0.437
449.0,0.4398
450.0,0.4526
451.0,0.4698
452.0,0.4531
453.0,0.4266
454.0,0.446
455.0,0.4489
456.0,0.46
457.0,0.4678
458.0,0.4515
459.0,0.4494
460.0,0.4505
461.0,0.4611
462.0,0.4653
463.0,0.4622
464.0,0.4556
465.0,0.4508
466.0,0.4558
467.0,0.4473
468.0,0.4527
469.0,0.4552
470.0,0.4406
471.0,0.4403
472.0,0.464
473.0,0.4581
474.0,0.4582
475.0,0.4615
476.0,0.4469
477.0,0.4475
478.0,0.4602
479.0,0.4579
480.0,0.4593
481.0,0.4686
482.0,0.4719
483.0,0.4672
484.0,0.4582
485.0,0.4372
486.0,0.3829
487.0,0.4019
488.0,0.4409
489.0,0.4421
490.0,0.4656
491.0,0.458
492.0,0.4327
493.0,0.447
494.0,0.4516
495.0,0.4556
496.0,0.4584
497.0,0.4654
498.0,0.4436
499.0,0.4489
500.0,0.4353
501.0,0.4267
502.0,0.4197
503.0,0.4356
504.0,0.4213
505.0,0.439
506.0,0.4531
507.0,0.4314
508.0,0.419
509.0,0.4315
510.0,0.4299
511.0,0.4421
512.0,0.4473
513.0,0.4235
514.0,0.4209
515.0,0.4167
516.0,0.4156
517.0,0.3695
518.0,0.3883
519.0,0.4073
520.0,0.422
521.0,0.4258
522.0,0.4259
523.0,0.418
524.0,0.4324
525.0,0.4366
526.0,0.4168
527.0,0.392
528.0,0.4141
529.0,0.436
530.0,0.4294
531.0,0.4354
532.0,0.4203
533.0,0.408
534.0,0.4204
535.0,0.43
536.0,0.4343
537.0,0.4175
538.0,0.4251
539.0,0.4215
540.0,0.4039
541.0,0.4056
542.0,0.4178
543.0,0.4142
544.0,0.4205
545.0,0.4194
546.0,0.4204
547.0,0.4209
548.0,0.4163
549.0,0.4178
550.0,0.4228
551.0,0.4178
552.0,0.4207
553.0,0.4131
554.0,0.4228
555.0,0.4235
556.0,0.4178
557.0,0.4045
558.0,0.4009
559.0,0.3929
560.0,0.3974
561.0,0.4021
562.0,0.3985
563.0,0.4087
564.0,0.397
565.0,0.393
566.0,0.3868
567.0,0.3934
568.0,0.3882
569.0,0.3757
570.0,0.376
571.0,0.3746
572.0,0.3813
573.0,0.385
574.0,0.3833
575.0,0.3753
576.0,0.372
577.0,0.3764
578.0,0.3717
579.0,0.3747
580.0,0.3843
581.0,0.3881
582.0,0.3971
583.0,0.3994
584.0,0.4038
585.0,0.3944
586.0,0.3864
587.0,0.3939
588.0,0.3802
589.0,0.329
590.0,0.3446
591.0,0.3695
592.0,0.362
593.0,0.371
594.0,0.3669
595.0,0.3548
596.0,0.3754
597.0,0.3696
598.0,0.3706
599.0,0.3718
600.0,0.374
601.0,0.3722
602.0,0.3699
603.0,0.3767
604.0,0.3833
605.0,0.3817
606.0,0.3808
607.0,0.3854
608.0,0.3819
609.0,0.3832
610.0,0.3812
611.0,0.3836
612.0,0.383
613.0,0.3785
614.0,0.374
615.0,0.3827
616.0,0.3706
617.0,0.3703
618.0,0.3849
619.0,0.3812
620.0,0.3836
621.0,0.3835
622.0,0.3785
623.0,0.3723
624.0,0.3664
625.0,0.3656
626.0,0.3708
627.0,0.3734
628.0,0.3301
629.0,0.358
630.0,0.3491
631.0,0.3634
632.0,0.3602
633.0,0.3738
634.0,0.3723
635.0,0.3792
636.0,0.3754
637.0,0.3825
638.0,0.3876
639.0,0.3841
640.0,0.3813
641.0,0.3817
642.0,0.3808
643.0,0.386
644.0,0.3856
645.0,0.3858
646.0,0.3745
647.0,0.3648
648.0,0.3655
649.0,0.3576
650.0,0.3661
651.0,0.3831
652.0,0.3606
653.0,0.3785
654.0,0.3748
655.0,0.3575
656.0,0.3192
657.0,0.3282
658.0,0.37
659.0,0.3735
660.0,0.3756
661.0,0.3785
662.0,0.378
663.0,0.371
664.0,0.3773
665.0,0.3791
666.0,0.38
667.0,0.3803
668.0,0.3813
669.0,0.3877
670.0,0.3864
671.0,0.3867
672.0,0.3836
673.0,0.3897
674.0,0.3886
675.0,0.3854
676.0,0.3883
677.0,0.3848
678.0,0.3861
679.0,0.3801
680.0,0.3834
681.0,0.3809
682.0,0.3805
683.0,0.3798
684.0,0.3779
685.0,0.3815
686.0,0.3789
687.0,0.1763
688.0,0.2382
689.0,0.2402
690.0,0.2638
691.0,0.2919
692.0,0.3146
693.0,0.3113
694.0,0.3106
695.0,0.3334
696.0,0.3345
697.0,0.3662
698.0,0.3602
699.0,0.3438
700.0,0.3393
701.0,0.3327
702.0,0.3381
703.0,0.3395
704.0,0.3551
705.0,0.3555
706.0,0.357
707.0,0.3581
708.0,0.3586
709.0,0.3624
710.0,0.3606
711.0,0.3613
712.0,0.3618
713.0,0.3566
714.0,0.3585
715.0,0.3439
716.0,0.3433
717.0,0.2698
718.0,0.2457
719.0,0.2229
720.0,0.2305
721.0,0.2701
722.0,0.3261
723.0,0.2952
724.0,0.2556
725.0,0.2482
726.0,0.2606
727.0,0.2714
728.0,0.2463
729.0,0.2652
730.0,0.2782
731.0,0.2645
732.0,0.2932
733.0,0.3197
734.0,0.3304
735.0,0.3219
736.0,0.321
737.0,0.3224
738.0,0.335
739.0,0.3286
740.0,0.3394
741.0,0.3374
742.0,0.3392
743.0,0.3482
744.0,0.3482
745.0,0.349
746.0,0.3506
747.0,0.3515
748.0,0.3509
749.0,0.347
750.0,0.3468
751.0,0.3434
752.0,0.345
753.0,0.3468
754.0,0.3476
755.0,0.3456
756.0,0.3455
757.0,0.346
758.0,0.3415
759.0,0.3296
760.0,0.01253
761.0,0.004252
762.0,0.09572
763.0,0.02647
764.0,0.05576
765.0,0.09548
766.0,0.1451
767.0,0.2182
768.0,0.2849
769.0,0.299
770.0,0.3185
771.0,0.3253
772.0,0.3274
773.0,0.33
774.0,0.3287
775.0,0.3264
776.0,0.3305
777.0,0.3262
778.0,0.3242
779.0,0.3245
780.0,0.3227
781.0,0.3231
782.0,0.3253
783.0,0.3197
784.0,0.3214
785.0,0.3187
786.0,0.3219
787.0,0.3124
788.0,0.3068
789.0,0.3066
790.0,0.2935
791.0,0.301
792.0,0.2996
793.0,0.2942
794.0,0.3043
795.0,0.3081
796.0,0.2915
797.0,0.2913
798.0,0.3069
799.0,0.3036
800.0,0.2967
801.0,0.294
802.0,0.2931
803.0,0.2899
804.0,0.2912
805.0,0.2923
806.0,0.3042
807.0,0.2997
808.0,0.3003
809.0,0.2919
810.0,0.2878
811.0,0.2847
812.0,0.2715
813.0,0.264
814.0,0.2195
815.0,0.2192
816.0,0.2022
817.0,0.2066
818.0,0.196
819.0,0.2299
820.0,0.2128
821.0,0.2652
822.0,0.255
823.0,0.1492
824.0,0.2412
825.0,0.2607
826.0,0.2453
827.0,0.2645
828.0,0.2084
829.0,0.245
830.0,0.2406
831.0,0.2415
832.0,0.2312
833.0,0.2532
834.0,0.2394
835.0,0.2748
836.0,0.2549
837.0,0.2757
838.0,0.2629
839.0,0.272
840.0,0.279
841.0,0.2733
842.0,0.2766
843.0,0.2793
844.0,0.274
845.0,0.2852
846.0,0.2845
847.0,0.28
848.0,0.277
849.0,0.2691
850.0,0.258
851.0,0.2718
852.0,0.2706
853.0,0.2615
854.0,0.2249
855.0,0.2483
856.0,0.2708
857.0,0.2777
858.0,0.2753
859.0,0.2761
860.0,0.277
861.0,0.2754
862.0,0.2799
863.0,0.2865
864.0,0.2723
865.0,0.27
866.0,0.2428
867.0,0.2534
868.0,0.2758
869.0,0.2701
870.0,0.2779
871.0,0.2741
872.0,0.2732
873.0,0.2727
874.0,0.2694
875.0,0.2639
876.0,0.2666
877.0,0.2694
878.0,0.2721
879.0,0.2679
880.0,0.2622
881.0,0.2577
882.0,0.263
883.0,0.2645
884.0,0.263
885.0,0.2649
886.0,0.2502
887.0,0.2547
888.0,0.2575
889.0,0.2623
890.0,0.2577
891.0,0.2585
892.0,0.2479
893.0,0.2373
894.0,0.2224
895.0,0.2022
896.0,0.1885
897.0,0.1531
898.0,0.1712
899.0,0.1206
900.0,0.1811
901.0,0.1264
902.0,0.161
903.0,0.1579
904.0,0.2205
905.0,0.2102
906.0,0.1942
907.0,0.1432
908.0,0.1491
909.0,0.1668
910.0,0.137
911.0,0.1543
912.0,0.1617
913.0,0.1385
914.0,0.1396
915.0,0.1502
916.0,0.1259
917.0,0.1699
918.0,0.1281
919.0,0.1768
920.0,0.1869
921.0,0.1937
922.0,0.1654
923.0,0.1881
924.0,0.1671
925.0,0.1641
926.0,0.1644
927.0,0.1916
928.0,0.1186
929.0,0.1027
930.0,0.07193
931.0,0.06808
932.0,0.04085
933.0,0.02996
934.0,0.01044
935.0,0.03312
936.0,0.01647
937.0,0.01658
938.0,0.0218
939.0,0.06573
940.0,0.08553
941.0,0.05662
942.0,0.06944
943.0,0.03986
944.0,0.04795
945.0,0.06015
946.0,0.02312
947.0,0.05831
948.0,0.04216
949.0,0.08596
950.0,0.01414
951.0,0.08547
952.0,0.0366
953.0,0.05341
954.0,0.07266
955.0,0.05482
956.0,0.06119
957.0,0.03624
958.0,0.09442
959.0,0.06553
960.0,0.0735
961.0,0.09008
962.0,0.08493
963.0,0.1047
964.0,0.09402
965.0,0.1039
966.0,0.1033
967.0,0.1018
968.0,0.1644
969.0,0.1672
970.0,0.1512
971.0,0.1855
972.0,0.1746
973.0,0.1395
974.0,0.1316
975.0,0.1405
976.0,0.1263
977.0,0.1587
978.0,0.1445
979.0,0.1547
980.0,0.1438
981.0,0.1848
982.0,0.172
983.0,0.1627
984.0,0.1963
985.0,0.171
986.0,0.2036
987.0,0.1955
988.0,0.1955
989.0,0.2055
990.0,0.1942
991.0,0.2056
992.0,0.2073
993.0,0.1985
994.0,0.2077
995.0,0.2081
996.0,0.2065
997.0,0.2071
998.0,0.2059
999.0,0.2053
1000.0,0.2028
1001.0,0.2065
1002.0,0.1965
1003.0,0.2026
1004.0,0.1965
1005.0,0.1909
1006.0,0.1976
1007.0,0.2022
1008.0,0.2003
1009.0,0.1984
1010.0,0.1971
1011.0,0.2012
1012.0,0.1987
1013.0,0.201
1014.0,0.1996
1015.0,0.1982
1016.0,0.1972
1017.0,0.1975
1018.0,0.1973
1019.0,0.1914
1020.0,0.196
1021.0,0.196
1022.0,0.1939
1023.0,0.1959
1024.0,0.1916
1025.0,0.1963
1026.0,0.195
1027.0,0.1946
1028.0,0.1941
1029.0,0.1916
1030.0,0.1936
1031.0,0.1925
1032.0,0.1922
1033.0,0.1892
1034.0,0.1893
1035.0,0.1899
1036.0,0.1907
1037.0,0.1877
1038.0,0.1884
1039.0,0.1882
1040.0,0.1874
1041.0,0.188
1042.0,0.1867
1043.0,0.186
1044.0,0.1865
1045.0,0.1839
1046.0,0.1818
1047.0,0.1833
1048.0,0.1841
1049.0,0.1833
1050.0,0.1823
1051.0,0.1819
1052.0,0.181
1053.0,0.1794
1054.0,0.1795
1055.0,0.1794
1056.0,0.1784
1057.0,0.1776
1058.0,0.173
1059.0,0.173
1060.0,0.1726
1061.0,0.1722
1062.0,0.1728
1063.0,0.1709
1064.0,0.173
1065.0,0.1711
1066.0,0.1682
1067.0,0.1702
1068.0,0.1661
1069.0,0.1613
1070.0,0.1664
1071.0,0.1704
1072.0,0.1674
1073.0,0.1652
1074.0,0.1711
1075.0,0.1584
1076.0,0.1708
1077.0,0.1654
1078.0,0.1611
1079.0,0.1688
1080.0,0.1629
1081.0,0.1555
1082.0,0.1616
1083.0,0.1631
1084.0,0.1544
1085.0,0.1636
1086.0,0.1439
1087.0,0.152
1088.0,0.1623
1089.0,0.1531
1090.0,0.1479
1091.0,0.1607
1092.0,0.161
1093.0,0.1261
1094.0,0.146
1095.0,0.1317
1096.0,0.1234
1097.0,0.1573
1098.0,0.1198
1099.0,0.1265
1100.0,0.1138
1101.0,0.1166
1102.0,0.1085
1103.0,0.1055
1104.0,0.1059
1105.0,0.1227
1106.0,0.07823
1107.0,0.1136
1108.0,0.08707
1109.0,0.08865
1110.0,0.1105
1111.0,0.06271
1112.0,0.08854
1113.0,0.04502
1114.0,0.05068
1115.0,0.04106
1116.0,0.02728
1117.0,0.005787
1118.0,0.03083
1119.0,0.01117
1120.0,0.01342
1121.0,0.01978
1122.0,0.00542
1123.0,0.01228
1124.0,0.01031
1125.0,0.01447
1126.0,0.002476
1127.0,0.01659
1128.0,0.006791
1129.0,0.007461
1130.0,0.004476
1131.0,0.04126
1132.0,0.03031
1133.0,0.01412
1134.0,0.001856
1135.0,0.0008101
1136.0,0.0102
1137.0,0.03846
1138.0,0.02604
1139.0,0.05135
1140.0,0.03802
1141.0,0.02492
1142.0,0.03079
1143.0,0.04941
1144.0,0.01212
1145.0,0.01356
1146.0,0.01457
1147.0,0.002711
1148.0,0.04184
1149.0,0.03004
1150.0,0.01421
1151.0,0.02586
1152.0,0.03586
1153.0,0.0383
1154.0,0.0136
1155.0,0.05342
1156.0,0.04544
1157.0,0.05682
1158.0,0.05597
1159.0,0.06303
1160.0,0.05189
1161.0,0.07147
1162.0,0.07096
1163.0,0.1104
1164.0,0.08958
1165.0,0.07932
1166.0,0.08317
1167.0,0.09304
1168.0,0.09295
1169.0,0.09646
1170.0,0.1095
1171.0,0.1066
1172.0,0.1118
1173.0,0.1093
1174.0,0.06806
1175.0,0.1097
1176.0,0.1271
1177.0,0.1175
1178.0,0.08052
1179.0,0.1281
1180.0,0.1074
1181.0,0.1111
1182.0,0.06775
1183.0,0.1108
1184.0,0.1007
1185.0,0.09436
1186.0,0.1214
1187.0,0.1125
1188.0,0.06717
1189.0,0.1044
1190.0,0.1194
1191.0,0.1071
1192.0,0.1216
1193.0,0.1144
1194.0,0.1194
1195.0,0.1086
1196.0,0.1024
1197.0,0.1211
1198.0,0.109
1199.0,0.08416
1200.0,0.1129
1201.0,0.1057
1202.0,0.1079
1203.0,0.1052
1204.0,0.08857
1205.0,0.1127
1206.0,0.1287
1207.0,0.1063
1208.0,0.1073
1209.0,0.1099
1210.0,0.1165
1211.0,0.1079
1212.0,0.1017
1213.0,0.122
1214.0,0.1059
1215.0,0.1035
1216.0,0.1222
1217.0,0.1174
1218.0,0.1211
1219.0,0.1185
1220.0,0.1214
1221.0,0.1237
1222.0,0.1198
1223.0,0.1179
1224.0,0.1153
1225.0,0.1225
1226.0,0.1247
1227.0,0.1104
1228.0,0.1263
1229.0,0.1247
1230.0,0.1218
1231.0,0.1282
1232.0,0.1274
1233.0,0.119
1234.0,0.129
1235.0,0.1276
1236.0,0.129
1237.0,0.1256
1238.0,0.1286
1239.0,0.1269
1240.0,0.1276
1241.0,0.126
1242.0,0.1266
1243.0,0.1257
1244.0,0.1262
1245.0,0.1269
1246.0,0.1263
1247.0,0.1255
1248.0,0.1248
1249.0,0.1257
1250.0,0.1246
1251.0,0.1224
1252.0,0.1232
1253.0,0.1207
1254.0,0.1184
1255.0,0.1227
1256.0,0.1165
1257.0,0.1153
1258.0,0.1196
1259.0,0.111
1260.0,0.1121
1261.0,0.1007
1262.0,0.09506
1263.0,0.0951
1264.0,0.08202
1265.0,0.09459
1266.0,0.08756
1267.0,0.0915
1268.0,0.083
1269.0,0.03224
1270.0,0.09022
1271.0,0.101
1272.0,0.1019
1273.0,0.1002
1274.0,0.1014
1275.0,0.1037
1276.0,0.1058
1277.0,0.1078
1278.0,0.1119
1279.0,0.1108
1280.0,0.1096
1281.0,0.1055
1282.0,0.1033
1283.0,0.1109
1284.0,0.1133
1285.0,0.1143
1286.0,0.1167
1287.0,0.1133
1288.0,0.1138
1289.0,0.1069
1290.0,0.1129
1291.0,0.1151
1292.0,0.1023
1293.0,0.1115
1294.0,0.1105
1295.0,0.108
1296.0,0.09965
1297.0,0.09188
1298.0,0.1043
1299.0,0.1122
1300.0,0.0863
1301.0,0.09038
1302.0,0.1041
1303.0,0.08597
1304.0,0.06576
1305.0,0.1016
1306.0,0.1006
1307.0,0.06996
1308.0,0.08745
1309.0,0.09842
1310.0,0.06787
1311.0,0.08201
1312.0,0.07883
1313.0,0.07529
1314.0,0.0646
1315.0,0.06215
1316.0,0.07923
1317.0,0.07389
1318.0,0.08365
1319.0,0.0564
1320.0,0.0563
1321.0,0.06883
1322.0,0.06778
1323.0,0.04396
1324.0,0.05572
1325.0,0.07698
1326.0,0.06168
1327.0,0.05752
1328.0,0.04707
1329.0,0.02949
1330.0,0.04158
1331.0,0.01925
1332.0,0.02142
1333.0,0.03088
1334.0,0.03025
1335.0,0.04308
1336.0,0.03053
1337.0,0.02626
1338.0,0.02796
1339.0,0.02858
1340.0,0.02957
1341.0,0.02464
1342.0,0.02648
1343.0,0.01208
1344.0,0.007803
1345.0,0.01071
1346.0,0.002915
1347.0,0.002603
1348.0,5.215e-05
1349.0,0.0002401
1350.0,0.0002951
1351.0,2.486e-05
1352.0,2.016e-06
1353.0,6.693e-08
1354.0,3.335e-07
1355.0,1.435e-09
1356.0,3.249e-08
1357.0,4.9e-08
1358.0,1.697e-09
1359.0,2.033e-10
1360.0,7.483e-10
1361.0,8.184e-13
1362.0,2.238e-15
1363.0,9.89e-10
1364.0,4.097e-10
1365.0,7.815e-16
1366.0,4.307e-09
1367.0,1.791e-09
1368.0,6.034e-18
1369.0,1.51e-10
1370.0,7.391e-11
1371.0,4.182e-12
1372.0,9.76e-10
1373.0,2.169e-08
1374.0,1.243e-07
1375.0,2.029e-07
1376.0,3.039e-07
1377.0,1.283e-07
1378.0,1.271e-06
1379.0,5.617e-08
1380.0,5.671e-08
1381.0,1.381e-09
1382.0,8.478e-10
1383.0,1.257e-11
1384.0,1.63e-10
1385.0,8.539e-10
1386.0,7.369e-10
1387.0,1.008e-07
1388.0,2.347e-09
1389.0,4.897e-07
1390.0,3.908e-07
1391.0,2.609e-07
1392.0,1.733e-08
1393.0,1.11e-07
1394.0,3.33e-08
1395.0,2.331e-10
1396.0,1.066e-12
1397.0,3.734e-08
1398.0,1.25e-06
1399.0,8.393e-07
1400.0,4.555e-13
1401.0,1.891e-12
1402.0,8.626e-06
1403.0,7.722e-06
1404.0,1.954e-06
1405.0,1.069e-10
1406.0,3.164e-06
1407.0,5.859e-07
1408.0,2.844e-06
1409.0,5.642e-07
1410.0,8.038e-07
1411.0,7.302e-06
1412.0,1.452e-05
1413.0,0.0003607
1414.0,7.123e-07
1415.0,2.658e-07
1416.0,0.001391
1417.0,0.0002376
1418.0,0.0001778
1419.0,2.423e-05
1420.0,0.0001066
1421.0,0.0001614
1422.0,0.001806
1423.0,0.0003189
1424.0,0.0007163
1425.0,0.0008314
1426.0,0.001361
1427.0,0.003262
