interpolation:linear
wavelength,value
280.0,2.646e-21
280.5,8.317e-20
281.0,4.393e-19
281.5,3.503e-19
282.0,1.019e-18
282.5,2.686e-18
283.0,8.706e-18
283.5,1.426e-17
284.0,2.331e-16
284.5,6.737e-16
285.0,1.518e-15
285.5,7.343e-15
286.0,2.934e-14
286.5,1.293e-13
287.0,3.657e-13
287.5,1.383e-12
288.0,3.718e-12
288.5,1.229e-11
289.0,3.477e-11
289.5,1.097e-10
290.0,3.129e-10
290.5,6.498e-10
291.0,1.419e-09
291.5,4.139e-09
292.0,8.834e-09
292.5,1.325e-08
293.0,3.091e-08
293.5,8.428e-08
294.0,1.428e-07
294.5,1.849e-07
295.0,3.387e-07
295.5,8.757e-07
296.0,1.754e-06
296.5,2.559e-06
297.0,3.598e-06
297.5,1.028e-05
298.0,1.719e-05
298.5,1.817e-05
299.0,4.217e-05
299.5,7.708e-05
300.0,8.996e-05
300.5,0.0001391
301.0,0.0002834
301.5,0.0005141
302.0,0.0004762
302.5,0.0009422
303.0,0.00172
303.5,0.002189
304.0,0.002073
304.5,0.003151
305.0,0.004897
305.5,0.005693
306.0,0.005542
306.5,0.006965
307.0,0.01054
307.5,0.01426
308.0,0.01511
308.5,0.01799
309.0,0.01776
309.5,0.02051
310.0,0.0207
310.5,0.0336
311.0,0.04232
311.5,0.04093
312.0,0.04122
312.5,0.0504
313.0,0.0548
313.5,0.05312
314.0,0.06678
314.5,0.05963
315.0,0.07847
315.5,0.06545
316.0,0.05748
316.5,0.08292
317.0,0.103
317.5,0.107
318.0,0.08377
318.5,0.1046
319.0,0.1245
319.5,0.1011
320.0,0.1221
320.5,0.1536
321.0,0.1374
321.5,0.1319
322.0,0.1399
322.5,0.1217
323.0,0.1217
323.5,0.1499
324.0,0.1751
324.5,0.1776
325.0,0.1533
325.5,0.1976
326.0,0.2418
326.5,0.2425
327.0,0.2416
327.5,0.2333
328.0,0.2074
328.5,0.2185
329.0,0.262
329.5,0.2976
330.0,0.3002
330.5,0.2401
331.0,0.2446
331.5,0.2488
332.0,0.2692
332.5,0.2664
333.0,0.2656
333.5,0.2403
334.0,0.2462
334.5,0.2844
335.0,0.2675
335.5,0.3124
336.0,0.2162
336.5,0.2532
337.0,0.2077
337.5,0.2584
338.0,0.2525
338.5,0.2916
339.0,0.2887
339.5,0.2778
340.0,0.3265
340.5,0.2944
341.0,0.2872
341.5,0.2638
342.0,0.3153
342.5,0.2951
343.0,0.3246
343.5,0.3057
344.0,0.226
344.5,0.2283
345.0,0.3023
345.5,0.3088
346.0,0.2625
346.5,0.2973
347.0,0.3193
347.5,0.2582
348.0,0.2945
348.5,0.2944
349.0,0.2732
349.5,0.2706
350.0,0.3348
350.5,0.3533
351.0,0.3157
351.5,0.3068
352.0,0.3297
352.5,0.2574
353.0,0.3243
353.5,0.3469
354.0,0.3602
354.5,0.3654
355.0,0.3642
355.5,0.3292
356.0,0.3445
356.5,0.2942
357.0,0.2432
357.5,0.2977
358.0,0.236
358.5,0.2017
359.0,0.2822
359.5,0.3597
360.0,0.3814
360.5,0.305
361.0,0.2781
361.5,0.3204
362.0,0.2772
362.5,0.3838
363.0,0.3449
363.5,0.3178
364.0,0.3888
364.5,0.3324
365.0,0.3387
365.5,0.4252
366.0,0.4507
366.5,0.4236
367.0,0.4127
367.5,0.4284
368.0,0.375
368.5,0.3785
369.0,0.4089
369.5,0.436
370.0,0.4649
370.5,0.3609
371.0,0.3858
371.5,0.4828
372.0,0.3205
372.5,0.3844
373.0,0.3912
373.5,0.2546
374.0,0.3701
374.5,0.3066
375.0,0.2981
375.5,0.4452
376.0,0.3692
376.5,0.3826
377.0,0.4053
377.5,0.4743
378.0,0.5142
378.5,0.4862
379.0,0.4013
379.5,0.3666
380.0,0.3813
380.5,0.4619
381.0,0.4631
381.5,0.3673
382.0,0.3263
382.5,0.2783
383.0,0.2577
383.5,0.2483
384.0,0.274
384.5,0.4031
385.0,0.3999
385.5,0.3726
386.0,0.3192
386.5,0.4194
387.0,0.3486
387.5,0.3917
388.0,0.3617
388.5,0.3577
389.0,0.3862
389.5,0.4679
390.0,0.4698
390.5,0.4324
391.0,0.5092
391.5,0.5195
392.0,0.4377
392.5,0.392
393.0,0.2182
393.5,0.1586
394.0,0.3229
394.5,0.4107
395.0,0.5012
395.5,0.5093
396.0,0.4417
396.5,0.2583
397.0,0.1939
397.5,0.3944
398.0,0.5524
398.5,0.5712
399.0,0.6187
399.5,0.6169
400.0,0.6406
401.0,0.6493
402.0,0.6854
403.0,0.6515
404.0,0.6417
405.0,0.6419
406.0,0.6319
407.0,0.622
408.0,0.6465
409.0,0.6922
410.0,0.6052
411.0,0.6558
412.0,0.7048
413.0,0.6875
414.0,0.6963
415.0,0.6984
416.0,0.711
417.0,0.6938
418.0,0.6812
419.0,0.6904
420.0,0.6876
421.0,0.7197
422.0,0.6842
423.0,0.6686
424.0,0.7074
425.0,0.7064
426.0,0.6884
427.0,0.6758
428.0,0.6585
429.0,0.624
430.0,0.5463
431.0,0.5416
432.0,0.6995
433.0,0.7036
434.0,0.6535
435.0,0.6826
436.0,0.7695
437.0,0.7594
438.0,0.6918
439.0,0.7154
440.0,0.7384
441.0,0.7655
442.0,0.8211
443.0,0.7998
444.0,0.8174
445.0,0.7998
446.0,0.7637
447.0,0.8259
448.0,0.8387
449.0,0.8425
450.0,0.8663
451.0,0.8986
452.0,0.8659
453.0,0.8147
454.0,0.8507
455.0,0.8561
456.0,0.8766
457.0,0.8913
458.0,0.8608
459.0,0.8565
460.0,0.8588
461.0,0.8787
462.0,0.8857
463.0,0.8796
464.0,0.8654
465.0,0.8548
466.0,0.8633
467.0,0.8475
468.0,0.8576
469.0,0.8621
470.0,0.8346
471.0,0.8337
472.0,0.8784
473.0,0.8671
474.0,0.8682
475.0,0.8754
476.0,0.8491
477.0,0.8513
478.0,0.875
479.0,0.8699
480.0,0.8717
481.0,0.8882
482.0,0.8931
483.0,0.8826
484.0,0.8647
485.0,0.824
486.0,0.7205
487.0,0.7553
488.0,0.8286
489.0,0.8312
490.0,0.8746
491.0,0.8596
492.0,0.8118
493.0,0.8385
494.0,0.8469
495.0,0.8542
496.0,0.8595
497.0,0.8728
498.0,0.832
499.0,0.8426
500.0,0.8179
501.0,0.8027
502.0,0.7912
503.0,0.8231
504.0,0.8012
505.0,0.8307
506.0,0.8575
507.0,0.8161
508.0,0.7909
509.0,0.8133
510.0,0.8092
511.0,0.8311
512.0,0.8403
513.0,0.7953
514.0,0.79
515.0,0.7821
516.0,0.7802
517.0,0.6933
518.0,0.7289
519.0,0.7645
520.0,0.7923
521.0,0.7998
522.0,0.8004
523.0,0.786
524.0,0.8139
525.0,0.8233
526.0,0.7864
527.0,0.7408
528.0,0.7834
529.0,0.8256
530.0,0.8137
531.0,0.8257
532.0,0.7973
533.0,0.7739
534.0,0.7969
535.0,0.8144
536.0,0.822
537.0,0.7896
538.0,0.8036
539.0,0.7969
540.0,0.764
541.0,0.7688
542.0,0.7927
543.0,0.7846
544.0,0.798
545.0,0.7955
546.0,0.7988
547.0,0.7987
548.0,0.7892
549.0,0.7917
550.0,0.8011
551.0,0.7914
552.0,0.7969
553.0,0.7826
554.0,0.8013
555.0,0.8029
556.0,0.7924
557.0,0.7677
558.0,0.7617
559.0,0.7474
560.0,0.7566
561.0,0.7663
562.0,0.7606
563.0,0.7811
564.0,0.7597
565.0,0.753
566.0,0.7418
567.0,0.7556
568.0,0.7484
569.0,0.7296
570.0,0.7296
571.0,0.7254
572.0,0.7422
573.0,0.75
574.0,0.7475
575.0,0.7333
576.0,0.7266
577.0,0.7346
578.0,0.7239
579.0,0.7272
580.0,0.7417
581.0,0.7461
582.0,0.7607
583.0,0.763
584.0,0.7699
585.0,0.7512
586.0,0.7358
587.0,0.7516
588.0,0.7321
589.0,0.6461
590.0,0.6759
591.0,0.7167
592.0,0.7068
593.0,0.7184
594.0,0.7129
595.0,0.6945
596.0,0.7238
597.0,0.7155
598.0,0.7143
599.0,0.7152
600.0,0.7167
601.0,0.7113
602.0,0.7065
603.0,0.7184
604.0,0.7304
605.0,0.7267
606.0,0.7239
607.0,0.7313
608.0,0.7235
609.0,0.7249
610.0,0.7199
611.0,0.7238
612.0,0.7218
613.0,0.7128
614.0,0.7033
615.0,0.7188
616.0,0.6953
617.0,0.694
618.0,0.7208
619.0,0.7135
620.0,0.718
621.0,0.7186
622.0,0.71
623.0,0.699
624.0,0.6872
625.0,0.6857
626.0,0.6958
627.0,0.7031
628.0,0.6511
629.0,0.6845
630.0,0.6686
631.0,0.6856
632.0,0.6777
633.0,0.6991
634.0,0.6929
635.0,0.704
636.0,0.695
637.0,0.7067
638.0,0.7139
639.0,0.7061
640.0,0.6995
641.0,0.6993
642.0,0.6963
643.0,0.7057
644.0,0.7037
645.0,0.7047
646.0,0.6876
647.0,0.6779
648.0,0.6784
649.0,0.6652
650.0,0.6704
651.0,0.6998
652.0,0.6686
653.0,0.6906
654.0,0.6831
655.0,0.6566
656.0,0.5827
657.0,0.5985
658.0,0.6713
659.0,0.6764
660.0,0.6793
661.0,0.6841
662.0,0.6851
663.0,0.6717
664.0,0.6803
665.0,0.6812
666.0,0.682
667.0,0.6815
668.0,0.6821
669.0,0.6927
670.0,0.6898
671.0,0.6898
672.0,0.684
673.0,0.6944
674.0,0.6919
675.0,0.6857
676.0,0.6904
677.0,0.6837
678.0,0.6857
679.0,0.6747
680.0,0.6801
681.0,0.6757
682.0,0.6748
683.0,0.6735
684.0,0.6702
685.0,0.676
686.0,0.6719
687.0,0.4221
688.0,0.5058
689.0,0.508
690.0,0.5367
691.0,0.5693
692.0,0.5935
693.0,0.5884
694.0,0.5836
695.0,0.6107
696.0,0.6117
697.0,0.6527
698.0,0.6425
699.0,0.6248
700.0,0.6171
701.0,0.61
702.0,0.6152
703.0,0.6164
704.0,0.6376
705.0,0.6385
706.0,0.6385
707.0,0.6392
708.0,0.6405
709.0,0.6424
710.0,0.6419
711.0,0.6413
712.0,0.6398
713.0,0.633
714.0,0.6355
715.0,0.6145
716.0,0.6146
717.0,0.5243
718.0,0.4804
719.0,0.4392
720.0,0.4593
721.0,0.5123
722.0,0.5918
723.0,0.548
724.0,0.4903
725.0,0.4813
726.0,0.5043
727.0,0.5136
728.0,0.4797
729.0,0.5008
730.0,0.5296
731.0,0.5059
732.0,0.5444
733.0,0.5794
734.0,0.5941
735.0,0.5813
736.0,0.5805
737.0,0.5828
738.0,0.594
739.0,0.5823
740.0,0.5981
741.0,0.5926
742.0,0.5935
743.0,0.6088
744.0,0.6073
745.0,0.6076
746.0,0.6104
747.0,0.6118
748.0,0.6105
749.0,0.6036
750.0,0.6032
751.0,0.5971
752.0,0.5997
753.0,0.6028
754.0,0.6041
755.0,0.6007
756.0,0.6005
757.0,0.6013
758.0,0.5938
759.0,0.5804
760.0,0.07532
761.0,0.0361
762.0,0.2711
763.0,0.1223
764.0,0.1951
765.0,0.271
766.0,0.3446
767.0,0.4474
768.0,0.5267
769.0,0.5402
770.0,0.5612
771.0,0.5669
772.0,0.5685
773.0,0.5726
774.0,0.5699
775.0,0.5656
776.0,0.5725
777.0,0.565
778.0,0.5616
779.0,0.562
780.0,0.5589
781.0,0.5595
782.0,0.563
783.0,0.5533
784.0,0.556
785.0,0.5517
786.0,0.5577
787.0,0.5469
788.0,0.5396
789.0,0.5393
790.0,0.5234
791.0,0.5294
792.0,0.5258
793.0,0.5171
794.0,0.5275
795.0,0.536
796.0,0.5174
797.0,0.518
798.0,0.5351
799.0,0.5313
800.0,0.5216
801.0,0.5195
802.0,0.518
803.0,0.5138
804.0,0.5147
805.0,0.5137
806.0,0.5292
807.0,0.5226
808.0,0.5231
809.0,0.5125
810.0,0.5078
811.0,0.5073
812.0,0.4914
813.0,0.4804
814.0,0.4181
815.0,0.4157
816.0,0.3864
817.0,0.3939
818.0,0.3781
819.0,0.4267
820.0,0.4004
821.0,0.4735
822.0,0.4591
823.0,0.3035
824.0,0.4437
825.0,0.4652
826.0,0.4458
827.0,0.4723
828.0,0.3952
829.0,0.4435
830.0,0.4371
831.0,0.4388
832.0,0.4244
833.0,0.4541
834.0,0.4363
835.0,0.4831
836.0,0.46
837.0,0.4846
838.0,0.4683
839.0,0.4775
840.0,0.4883
841.0,0.4809
842.0,0.4827
843.0,0.4833
844.0,0.4761
845.0,0.4928
846.0,0.4908
847.0,0.4819
848.0,0.4786
849.0,0.4649
850.0,0.4455
851.0,0.4713
852.0,0.4682
853.0,0.451
854.0,0.3891
855.0,0.4279
856.0,0.4674
857.0,0.4781
858.0,0.4744
859.0,0.4751
860.0,0.476
861.0,0.4734
862.0,0.4809
863.0,0.4922
864.0,0.4677
865.0,0.4636
866.0,0.4169
867.0,0.435
868.0,0.4734
869.0,0.4636
870.0,0.4768
871.0,0.4703
872.0,0.4687
873.0,0.4678
874.0,0.4622
875.0,0.4528
876.0,0.4575
877.0,0.4622
878.0,0.4671
879.0,0.4599
880.0,0.4501
881.0,0.4431
882.0,0.4526
883.0,0.4543
884.0,0.4521
885.0,0.4555
886.0,0.4334
887.0,0.4386
888.0,0.4447
889.0,0.4504
890.0,0.4458
891.0,0.4455
892.0,0.4316
893.0,0.4169
894.0,0.4
895.0,0.375
896.0,0.3523
897.0,0.2989
898.0,0.3282
899.0,0.2453
900.0,0.3383
901.0,0.2572
902.0,0.3076
903.0,0.3087
904.0,0.3969
905.0,0.3821
906.0,0.3566
907.0,0.2841
908.0,0.2906
909.0,0.3173
910.0,0.2759
911.0,0.2972
912.0,0.3115
913.0,0.2798
914.0,0.2783
915.0,0.3018
916.0,0.2544
917.0,0.3277
918.0,0.2606
919.0,0.3351
920.0,0.3415
921.0,0.3554
922.0,0.3142
923.0,0.3435
924.0,0.3215
925.0,0.3146
926.0,0.3177
927.0,0.3591
928.0,0.2536
929.0,0.2288
930.0,0.1755
931.0,0.1668
932.0,0.1157
933.0,0.09182
934.0,0.0458
935.0,0.09576
936.0,0.05686
937.0,0.05735
938.0,0.07165
939.0,0.1615
940.0,0.1975
941.0,0.1448
942.0,0.1702
943.0,0.1086
944.0,0.1176
945.0,0.1502
946.0,0.07198
947.0,0.1497
948.0,0.1094
949.0,0.2047
950.0,0.05035
951.0,0.2024
952.0,0.1029
953.0,0.1368
954.0,0.172
955.0,0.1388
956.0,0.1378
957.0,0.1026
958.0,0.2009
959.0,0.1546
960.0,0.1733
961.0,0.1984
962.0,0.1873
963.0,0.2194
964.0,0.1999
965.0,0.2188
966.0,0.2181
967.0,0.2168
968.0,0.3032
969.0,0.3153
970.0,0.2881
971.0,0.3352
972.0,0.3196
973.0,0.2727
974.0,0.2581
975.0,0.2701
976.0,0.2534
977.0,0.2944
978.0,0.2772
979.0,0.292
980.0,0.2735
981.0,0.3335
982.0,0.3168
983.0,0.303
984.0,0.346
985.0,0.3156
986.0,0.3535
987.0,0.3449
988.0,0.3444
989.0,0.3534
990.0,0.3423
991.0,0.3542
992.0,0.3565
993.0,0.3469
994.0,0.3565
995.0,0.3563
996.0,0.3545
997.0,0.3551
998.0,0.3534
999.0,0.3521
1000.0,0.3493
1001.0,0.3541
1002.0,0.3427
1003.0,0.3477
1004.0,0.3388
1005.0,0.327
1006.0,0.3394
1007.0,0.3468
1008.0,0.3446
1009.0,0.3425
1010.0,0.3408
1011.0,0.3451
1012.0,0.3418
1013.0,0.3443
1014.0,0.3419
1015.0,0.3396
1016.0,0.338
1017.0,0.3388
1018.0,0.3378
1019.0,0.3299
1020.0,0.3359
1021.0,0.3355
1022.0,0.3327
1023.0,0.3362
1024.0,0.3312
1025.0,0.3362
1026.0,0.3346
1027.0,0.3338
1028.0,0.3331
1029.0,0.3291
1030.0,0.3316
1031.0,0.3301
1032.0,0.3292
1033.0,0.3243
1034.0,0.3243
1035.0,0.3253
1036.0,0.3269
1037.0,0.3217
1038.0,0.323
1039.0,0.3228
1040.0,0.3215
1041.0,0.3227
1042.0,0.3205
1043.0,0.3194
1044.0,0.3205
1045.0,0.3161
1046.0,0.3126
1047.0,0.3154
1048.0,0.317
1049.0,0.3159
1050.0,0.3143
1051.0,0.3138
1052.0,0.3125
1053.0,0.3099
1054.0,0.3105
1055.0,0.3106
1056.0,0.3094
1057.0,0.3084
1058.0,0.3007
1059.0,0.3009
1060.0,0.3004
1061.0,0.3
1062.0,0.3015
1063.0,0.2984
1064.0,0.302
1065.0,0.2996
1066.0,0.2938
1067.0,0.2976
1068.0,0.2909
1069.0,0.2821
1070.0,0.2915
1071.0,0.2966
1072.0,0.2927
1073.0,0.2886
1074.0,0.2967
1075.0,0.2801
1076.0,0.2963
1077.0,0.2901
1078.0,0.2842
1079.0,0.2919
1080.0,0.2856
1081.0,0.2757
1082.0,0.2815
1083.0,0.2827
1084.0,0.2746
1085.0,0.2864
1086.0,0.259
1087.0,0.269
1088.0,0.2821
1089.0,0.2719
1090.0,0.265
1091.0,0.2808
1092.0,0.2804
1093.0,0.2332
1094.0,0.256
1095.0,0.2435
1096.0,0.2318
1097.0,0.274
1098.0,0.2276
1099.0,0.2382
1100.0,0.2195
1101.0,0.2228
1102.0,0.2116
1103.0,0.2087
1104.0,0.209
1105.0,0.2323
1106.0,0.1702
1107.0,0.2192
1108.0,0.1813
1109.0,0.1826
1110.0,0.2166
1111.0,0.141
1112.0,0.1815
1113.0,0.1095
1114.0,0.1229
1115.0,0.1016
1116.0,0.07766
1117.0,0.02501
1118.0,0.0856
1119.0,0.0395
1120.0,0.04944
1121.0,0.06736
1122.0,0.02585
1123.0,0.04481
1124.0,0.03778
1125.0,0.05002
1126.0,0.01499
1127.0,0.05665
1128.0,0.03119
1129.0,0.03344
1130.0,0.02114
1131.0,0.1142
1132.0,0.08831
1133.0,0.05229
1134.0,0.01149
1135.0,0.004422
1136.0,0.04234
1137.0,0.1109
1138.0,0.07745
1139.0,0.1229
1140.0,0.09986
1141.0,0.07366
1142.0,0.08619
1143.0,0.1255
1144.0,0.04038
1145.0,0.05049
1146.0,0.05441
1147.0,0.01667
1148.0,0.1084
1149.0,0.08439
1150.0,0.0439
1151.0,0.07681
1152.0,0.09714
1153.0,0.09666
1154.0,0.04873
1155.0,0.1281
1156.0,0.1139
1157.0,0.1303
1158.0,0.1289
1159.0,0.1408
1160.0,0.1185
1161.0,0.15
1162.0,0.1504
1163.0,0.2099
1164.0,0.1776
1165.0,0.1652
1166.0,0.1658
1167.0,0.1818
1168.0,0.1833
1169.0,0.1884
1170.0,0.2067
1171.0,0.2014
1172.0,0.2062
1173.0,0.2063
1174.0,0.1426
1175.0,0.2025
1176.0,0.2251
1177.0,0.2144
1178.0,0.1575
1179.0,0.227
1180.0,0.1999
1181.0,0.2064
1182.0,0.1387
1183.0,0.2039
1184.0,0.1898
1185.0,0.182
1186.0,0.2195
1187.0,0.2079
1188.0,0.1405
1189.0,0.1935
1190.0,0.2147
1191.0,0.2017
1192.0,0.2179
1193.0,0.2081
1194.0,0.215
1195.0,0.2018
1196.0,0.1935
1197.0,0.2158
1198.0,0.1965
1199.0,0.164
1200.0,0.2054
1201.0,0.197
1202.0,0.1966
1203.0,0.1946
1204.0,0.1687
1205.0,0.2021
1206.0,0.2249
1207.0,0.1957
1208.0,0.1936
1209.0,0.1978
1210.0,0.2068
1211.0,0.1958
1212.0,0.1919
1213.0,0.2168
1214.0,0.1971
1215.0,0.1932
1216.0,0.2162
1217.0,0.2099
1218.0,0.2144
1219.0,0.2114
1220.0,0.2146
1221.0,0.2171
1222.0,0.2112
1223.0,0.209
1224.0,0.2072
1225.0,0.2157
1226.0,0.2175
1227.0,0.1991
1228.0,0.2189
1229.0,0.2176
1230.0,0.2136
1231.0,0.2206
1232.0,0.2193
1233.0,0.2104
1234.0,0.2207
1235.0,0.2191
1236.0,0.2209
1237.0,0.2172
1238.0,0.2201
1239.0,0.2173
1240.0,0.2182
1241.0,0.2168
1242.0,0.2166
1243.0,0.2149
1244.0,0.2163
1245.0,0.2173
1246.0,0.2161
1247.0,0.2151
1248.0,0.2148
1249.0,0.2156
1250.0,0.2142
1251.0,0.2113
1252.0,0.2116
1253.0,0.2094
1254.0,0.207
1255.0,0.2112
1256.0,0.2045
1257.0,0.2032
1258.0,0.2077
1259.0,0.1989
1260.0,0.2
1261.0,0.1872
1262.0,0.1808
1263.0,0.1811
1264.0,0.1652
1265.0,0.1799
1266.0,0.172
1267.0,0.1758
1268.0,0.1655
1269.0,0.09468
1270.0,0.1749
1271.0,0.1868
1272.0,0.1876
1273.0,0.1854
1274.0,0.1862
1275.0,0.1892
1276.0,0.1914
1277.0,0.1931
1278.0,0.1974
1279.0,0.1956
1280.0,0.1932
1281.0,0.1846
1282.0,0.1784
1283.0,0.192
1284.0,0.1965
1285.0,0.1979
1286.0,0.2008
1287.0,0.1972
1288.0,0.1973
1289.0,0.1901
1290.0,0.1956
1291.0,0.1985
1292.0,0.1847
1293.0,0.1942
1294.0,0.1928
1295.0,0.1913
1296.0,0.1815
1297.0,0.1708
1298.0,0.1857
1299.0,0.1946
1300.0,0.1617
1301.0,0.1672
1302.0,0.1851
1303.0,0.1599
1304.0,0.1334
1305.0,0.1811
1306.0,0.1809
1307.0,0.1374
1308.0,0.1606
1309.0,0.1792
1310.0,0.1346
1311.0,0.1533
1312.0,0.1487
1313.0,0.1453
1314.0,0.129
1315.0,0.1266
1316.0,0.1504
1317.0,0.1421
1318.0,0.1556
1319.0,0.1181
1320.0,0.1152
1321.0,0.1354
1322.0,0.1361
1323.0,0.09949
1324.0,0.1159
1325.0,0.148
1326.0,0.1251
1327.0,0.1188
1328.0,0.1015
1329.0,0.0736
1330.0,0.09713
1331.0,0.05559
1332.0,0.0584
1333.0,0.08194
1334.0,0.07108
1335.0,0.099
1336.0,0.07664
1337.0,0.06704
1338.0,0.07248
1339.0,0.07261
1340.0,0.07149
1341.0,0.06779
1342.0,0.0714
1343.0,0.04458
1344.0,0.02699
1345.0,0.03897
1346.0,0.01714
1347.0,0.01704
1348.0,0.0008415
1349.0,0.003257
1350.0,0.003567
1351.0,0.000676
1352.0,0.0001368
1353.0,5.302e-06
1354.0,2.216e-05
1355.0,9.824e-08
1356.0,2.55e-06
1357.0,3.901e-06
1358.0,1.192e-07
1359.0,9.478e-09
1360.0,4.632e-08
1361.0,2.01e-11
1362.0,3.807e-14
1363.0,5.301e-08
1364.0,2.201e-08
1365.0,8.022e-15
1366.0,2.615e-07
1367.0,1.193e-07
1368.0,2.533e-17
1369.0,8.093e-09
1370.0,3.286e-09
1371.0,1.497e-10
1372.0,6.617e-08
1373.0,1.806e-06
1374.0,1.037e-05
1375.0,1.836e-05
1376.0,2.019e-05
1377.0,8.859e-06
1378.0,9.351e-05
1379.0,3.719e-06
1380.0,4.659e-06
1381.0,1.093e-07
1382.0,5.636e-08
1383.0,7.279e-10
1384.0,8.424e-09
1385.0,6.704e-08
1386.0,4.362e-08
1387.0,9.286e-06
1388.0,1.902e-07
1389.0,4.042e-05
1390.0,3.438e-05
1391.0,2.215e-05
1392.0,1.369e-06
1393.0,8.108e-06
1394.0,2.924e-06
1395.0,1.734e-08
1396.0,3.295e-11
1397.0,2.974e-06
1398.0,0.0001021
1399.0,6.549e-05
1400.0,1.102e-11
1401.0,6.494e-11
1402.0,0.0002493
1403.0,0.0002947
1404.0,8.731e-05
1405.0,7.14e-09
1406.0,0.0002045
1407.0,1.995e-05
1408.0,0.0001707
1409.0,4.813e-05
1410.0,4.398e-05
1411.0,0.0002624
1412.0,0.0003851
1413.0,0.00502
1414.0,3.556e-05
1415.0,1.578e-05
1416.0,0.009709
1417.0,0.002498
1418.0,0.002729
1419.0,0.0004073
1420.0,0.001657
1421.0,0.001827
1422.0,0.01275
1423.0,0.002366
1424.0,0.00457
1425.0,0.006473
1426.0,0.007922
1427.0,0.01583
1428.0,0.0007699
1429.0,0.01117
1430.0,0.0208
1431.0,0.02329
1432.0,0.0005987
1433.0,0.01422
1434.0,0.006942
1435.0,0.005971
1436.0,0.01299
