interpolation:linear
wavelength,value
280.0,7.173e-22
280.5,2.325e-20
281.0,1.24e-19
281.5,5.153e-19
282.0,8.642e-19
282.5,2.138e-18
283.0,6.731e-18
283.5,1.093e-17
284.0,1.777e-16
284.5,5.151e-16
285.0,9.485e-16
285.5,4.628e-15
286.0,1.855e-14
286.5,8.257e-14
287.0,2.352e-13
287.5,8.992e-13
288.0,2.893e-12
288.5,8.911e-12
289.0,2.399e-11
289.5,7.293e-11
290.0,2.032e-10
290.5,4.151e-10
291.0,8.923e-10
291.5,2.564e-09
292.0,5.845e-09
292.5,8.196e-09
293.0,1.756e-08
293.5,4.268e-08
294.0,6.671e-08
294.5,8.839e-08
295.0,1.496e-07
295.5,3.016e-07
296.0,5.65e-07
296.5,8.112e-07
297.0,1.125e-06
297.5,3.155e-06
298.0,5.203e-06
298.5,5.447e-06
299.0,1.254e-05
299.5,2.275e-05
300.0,2.647e-05
300.5,4.085e-05
301.0,8.3e-05
301.5,0.0001495
302.0,0.0001374
302.5,0.0002769
303.0,0.0005196
303.5,0.0006754
304.0,0.0006515
304.5,0.001041
305.0,0.001739
305.5,0.002117
306.0,0.002099
306.5,0.00272
307.0,0.004403
307.5,0.00637
308.0,0.006822
308.5,0.008401
309.0,0.008527
309.5,0.0103
310.0,0.01061
310.5,0.01739
311.0,0.02228
311.5,0.0217
312.0,0.02266
312.5,0.02838
313.0,0.03125
313.5,0.02994
314.0,0.03874
314.5,0.03593
315.0,0.0476
315.5,0.03898
316.0,0.03531
316.5,0.05231
317.0,0.06492
317.5,0.06698
318.0,0.05338
318.5,0.069
319.0,0.08357
319.5,0.06597
320.0,0.07934
320.5,0.1034
321.0,0.09553
321.5,0.09195
322.0,0.09429
322.5,0.08221
323.0,0.08399
323.5,0.1056
324.0,0.1238
324.5,0.1244
325.0,0.1062
325.5,0.1395
326.0,0.1714
326.5,0.1739
327.0,0.1726
327.5,0.1657
328.0,0.1451
328.5,0.1557
329.0,0.1896
329.5,0.2164
330.0,0.2175
330.5,0.1719
331.0,0.1745
331.5,0.1791
332.0,0.1962
332.5,0.1953
333.0,0.1941
333.5,0.174
334.0,0.178
334.5,0.2078
335.0,0.1966
335.5,0.2299
336.0,0.1592
336.5,0.1857
337.0,0.1517
337.5,0.1884
338.0,0.1858
338.5,0.2149
339.0,0.2129
339.5,0.2048
340.0,0.2404
340.5,0.217
341.0,0.2119
341.5,0.1948
342.0,0.233
342.5,0.2181
343.0,0.2399
343.5,0.2258
344.0,0.1668
344.5,0.1686
345.0,0.2235
345.5,0.2285
346.0,0.1943
346.5,0.2202
347.0,0.2364
347.5,0.1912
348.0,0.2182
348.5,0.2183
349.0,0.2027
349.5,0.2008
350.0,0.2485
350.5,0.2622
351.0,0.2342
351.5,0.2276
352.0,0.2447
352.5,0.1911
353.0,0.241
353.5,0.2578
354.0,0.2678
354.5,0.2717
355.0,0.2708
355.5,0.2449
356.0,0.2564
356.5,0.219
357.0,0.181
357.5,0.2216
358.0,0.1757
358.5,0.1502
359.0,0.2102
359.5,0.2679
360.0,0.2841
360.5,0.2272
361.0,0.2073
361.5,0.2389
362.0,0.2068
362.5,0.2864
363.0,0.2575
363.5,0.2373
364.0,0.2905
364.5,0.2484
365.0,0.2531
365.5,0.3178
366.0,0.337
366.5,0.3169
367.0,0.3087
367.5,0.3205
368.0,0.2807
368.5,0.2834
369.0,0.3062
369.5,0.3266
370.0,0.3483
370.5,0.2705
371.0,0.2892
371.5,0.362
372.0,0.2404
372.5,0.2884
373.0,0.2935
373.5,0.1911
374.0,0.2778
374.5,0.2302
375.0,0.2239
375.5,0.3344
376.0,0.2773
376.5,0.2875
377.0,0.3046
377.5,0.3565
378.0,0.3866
378.5,0.3655
379.0,0.3018
379.5,0.2757
380.0,0.2868
380.5,0.3476
381.0,0.3486
381.5,0.2765
382.0,0.2458
382.5,0.2097
383.0,0.1942
383.5,0.1872
384.0,0.2066
384.5,0.3041
385.0,0.3017
385.5,0.2811
386.0,0.2409
386.5,0.3167
387.0,0.2633
387.5,0.2958
388.0,0.2733
388.5,0.2703
389.0,0.2919
389.5,0.3537
390.0,0.3552
390.5,0.3271
391.0,0.3852
391.5,0.3931
392.0,0.3312
392.5,0.2967
393.0,0.1652
393.5,0.1202
394.0,0.2446
394.5,0.3112
395.0,0.3799
395.5,0.386
396.0,0.3349
396.5,0.1959
397.0,0.1471
397.5,0.2993
398.0,0.4192
398.5,0.4335
399.0,0.4698
399.5,0.4685
400.0,0.4865
401.0,0.492
402.0,0.5196
403.0,0.4942
404.0,0.487
405.0,0.4873
406.0,0.4799
407.0,0.4727
408.0,0.4913
409.0,0.5263
410.0,0.4603
411.0,0.4991
412.0,0.5367
413.0,0.5236
414.0,0.5305
415.0,0.5325
416.0,0.5423
417.0,0.5293
418.0,0.5199
419.0,0.5272
420.0,0.5252
421.0,0.5499
422.0,0.523
423.0,0.5112
424.0,0.541
425.0,0.5404
426.0,0.527
427.0,0.5175
428.0,0.5044
429.0,0.4783
430.0,0.4189
431.0,0.4153
432.0,0.5367
433.0,0.54
434.0,0.5016
435.0,0.524
436.0,0.591
437.0,0.5837
438.0,0.5319
439.0,0.5499
440.0,0.5678
441.0,0.5888
442.0,0.6318
443.0,0.6153
444.0,0.6292
445.0,0.6156
446.0,0.5882
447.0,0.6366
448.0,0.6463
449.0,0.6497
450.0,0.6683
451.0,0.6933
452.0,0.6683
453.0,0.629
454.0,0.6571
455.0,0.6613
456.0,0.6773
457.0,0.6887
458.0,0.665
459.0,0.6618
460.0,0.6635
461.0,0.679
462.0,0.6847
463.0,0.6801
464.0,0.6696
465.0,0.6618
466.0,0.6687
467.0,0.6563
468.0,0.6642
469.0,0.6677
470.0,0.6464
471.0,0.6458
472.0,0.6805
473.0,0.6717
474.0,0.6723
475.0,0.6776
476.0,0.6568
477.0,0.6583
478.0,0.6768
479.0,0.673
480.0,0.6747
481.0,0.6878
482.0,0.6921
483.0,0.6844
484.0,0.6708
485.0,0.6395
486.0,0.5594
487.0,0.5867
488.0,0.6437
489.0,0.6455
490.0,0.6794
491.0,0.668
492.0,0.6309
493.0,0.6517
494.0,0.6583
495.0,0.664
496.0,0.6681
497.0,0.6785
498.0,0.6467
499.0,0.6548
500.0,0.6354
501.0,0.6233
502.0,0.6139
503.0,0.6381
504.0,0.6196
505.0,0.6437
506.0,0.6644
507.0,0.6324
508.0,0.6134
509.0,0.6311
510.0,0.6283
511.0,0.6456
512.0,0.6529
513.0,0.618
514.0,0.614
515.0,0.6079
516.0,0.6063
517.0,0.5389
518.0,0.5665
519.0,0.5942
520.0,0.6157
521.0,0.6215
522.0,0.6218
523.0,0.6105
524.0,0.632
525.0,0.6389
526.0,0.6101
527.0,0.5744
528.0,0.6072
529.0,0.6397
530.0,0.6303
531.0,0.6394
532.0,0.6174
533.0,0.5993
534.0,0.6172
535.0,0.631
536.0,0.637
537.0,0.6121
538.0,0.6231
539.0,0.6178
540.0,0.5922
541.0,0.5955
542.0,0.6138
543.0,0.6079
544.0,0.6179
545.0,0.6161
546.0,0.6182
547.0,0.6184
548.0,0.6113
549.0,0.6133
550.0,0.6206
551.0,0.6132
552.0,0.6175
553.0,0.6063
554.0,0.6208
555.0,0.6219
556.0,0.6137
557.0,0.5944
558.0,0.5896
559.0,0.5782
560.0,0.5852
561.0,0.5924
562.0,0.5877
563.0,0.6033
564.0,0.5865
565.0,0.5811
566.0,0.5722
567.0,0.5826
568.0,0.5762
569.0,0.5602
570.0,0.5604
571.0,0.5576
572.0,0.5695
573.0,0.5753
574.0,0.5731
575.0,0.5619
576.0,0.5568
577.0,0.5631
578.0,0.5553
579.0,0.5586
580.0,0.5708
581.0,0.575
582.0,0.587
583.0,0.5894
584.0,0.5951
585.0,0.581
586.0,0.569
587.0,0.5808
588.0,0.5638
589.0,0.494
590.0,0.5171
591.0,0.5505
592.0,0.5416
593.0,0.5521
594.0,0.5472
595.0,0.5317
596.0,0.5572
597.0,0.55
598.0,0.55
599.0,0.5511
600.0,0.5531
601.0,0.5494
602.0,0.5458
603.0,0.5553
604.0,0.5647
605.0,0.5621
606.0,0.5602
607.0,0.5663
608.0,0.5606
609.0,0.562
610.0,0.5584
611.0,0.5616
612.0,0.5603
613.0,0.5535
614.0,0.5464
615.0,0.5587
616.0,0.5406
617.0,0.5398
618.0,0.5608
619.0,0.5553
620.0,0.5588
621.0,0.5589
622.0,0.552
623.0,0.5433
624.0,0.5343
625.0,0.5331
626.0,0.5409
627.0,0.5459
628.0,0.4972
629.0,0.5286
630.0,0.516
631.0,0.5319
632.0,0.5264
633.0,0.5442
634.0,0.5403
635.0,0.5494
636.0,0.543
637.0,0.5525
638.0,0.5588
639.0,0.553
640.0,0.5483
641.0,0.5484
642.0,0.5464
643.0,0.5538
644.0,0.5526
645.0,0.5532
646.0,0.5387
647.0,0.5288
648.0,0.5293
649.0,0.5187
650.0,0.5257
651.0,0.5493
652.0,0.5218
653.0,0.5422
654.0,0.5366
655.0,0.5143
656.0,0.4575
657.0,0.47
658.0,0.5281
659.0,0.5325
660.0,0.5351
661.0,0.5389
662.0,0.5392
663.0,0.5289
664.0,0.5364
665.0,0.5378
666.0,0.5386
667.0,0.5386
668.0,0.5394
669.0,0.5481
670.0,0.5459
671.0,0.546
672.0,0.5415
673.0,0.5499
674.0,0.5481
675.0,0.5433
676.0,0.5472
677.0,0.542
678.0,0.5437
679.0,0.5351
680.0,0.5394
681.0,0.536
682.0,0.5353
683.0,0.5343
684.0,0.5316
685.0,0.5364
686.0,0.533
687.0,0.3006
688.0,0.3762
689.0,0.3784
690.0,0.4054
691.0,0.4366
692.0,0.4605
693.0,0.4561
694.0,0.453
695.0,0.4785
696.0,0.4795
697.0,0.5168
698.0,0.5086
699.0,0.4911
700.0,0.4849
701.0,0.478
702.0,0.4834
703.0,0.4846
704.0,0.5034
705.0,0.5041
706.0,0.5049
707.0,0.5058
708.0,0.5067
709.0,0.5096
710.0,0.5085
711.0,0.5085
712.0,0.508
713.0,0.5019
714.0,0.5041
715.0,0.486
716.0,0.4858
717.0,0.4018
718.0,0.3669
719.0,0.3345
720.0,0.3485
721.0,0.3961
722.0,0.4655
723.0,0.4272
724.0,0.3774
725.0,0.3689
726.0,0.3869
727.0,0.3973
728.0,0.367
729.0,0.3876
730.0,0.4091
731.0,0.3899
732.0,0.4243
733.0,0.4559
734.0,0.4688
735.0,0.458
736.0,0.4572
737.0,0.459
738.0,0.4711
739.0,0.4619
740.0,0.4755
741.0,0.4716
742.0,0.473
743.0,0.4853
744.0,0.4846
745.0,0.4851
746.0,0.4873
747.0,0.4885
748.0,0.4876
749.0,0.4821
750.0,0.4818
751.0,0.477
752.0,0.4791
753.0,0.4816
754.0,0.4827
755.0,0.4799
756.0,0.4798
757.0,0.4804
758.0,0.4743
759.0,0.4615
760.0,0.03779
761.0,0.01548
762.0,0.1819
763.0,0.06828
764.0,0.1211
765.0,0.1817
766.0,0.2464
767.0,0.3371
768.0,0.4117
769.0,0.4257
770.0,0.4462
771.0,0.4525
772.0,0.4543
773.0,0.4577
774.0,0.4557
775.0,0.4524
776.0,0.4579
777.0,0.4519
778.0,0.4492
779.0,0.4495
780.0,0.4471
781.0,0.4476
782.0,0.4504
783.0,0.4427
784.0,0.4449
785.0,0.4414
786.0,0.4461
787.0,0.4358
788.0,0.4293
789.0,0.4289
790.0,0.4141
791.0,0.4211
792.0,0.4184
793.0,0.4113
794.0,0.4218
795.0,0.428
796.0,0.4102
797.0,0.4104
798.0,0.427
799.0,0.4234
800.0,0.4149
801.0,0.4125
802.0,0.4113
803.0,0.4076
804.0,0.4087
805.0,0.4088
806.0,0.4226
807.0,0.417
808.0,0.4176
809.0,0.4079
810.0,0.4035
811.0,0.4014
812.0,0.3868
813.0,0.3772
814.0,0.3224
815.0,0.321
816.0,0.2977
817.0,0.3039
818.0,0.2903
819.0,0.3327
820.0,0.3104
821.0,0.3745
822.0,0.3619
823.0,0.2283
824.0,0.347
825.0,0.3679
826.0,0.3502
827.0,0.3734
828.0,0.3055
829.0,0.3488
830.0,0.3433
831.0,0.3446
832.0,0.332
833.0,0.3585
834.0,0.3423
835.0,0.3841
836.0,0.3623
837.0,0.3854
838.0,0.3707
839.0,0.3801
840.0,0.3891
841.0,0.3825
842.0,0.3851
843.0,0.3867
844.0,0.3803
845.0,0.3945
846.0,0.3931
847.0,0.3863
848.0,0.3831
849.0,0.3722
850.0,0.3567
851.0,0.3768
852.0,0.3746
853.0,0.3612
854.0,0.3113
855.0,0.3429
856.0,0.3743
857.0,0.3832
858.0,0.3801
859.0,0.3809
860.0,0.3818
861.0,0.3796
862.0,0.3857
863.0,0.3948
864.0,0.3751
865.0,0.3719
866.0,0.3344
867.0,0.349
868.0,0.3798
869.0,0.372
870.0,0.3826
871.0,0.3774
872.0,0.3761
873.0,0.3754
874.0,0.3709
875.0,0.3634
876.0,0.3671
877.0,0.3709
878.0,0.3748
879.0,0.369
880.0,0.3611
881.0,0.3553
882.0,0.3628
883.0,0.3644
884.0,0.3626
885.0,0.3653
886.0,0.3466
887.0,0.3515
888.0,0.356
889.0,0.3613
890.0,0.3567
891.0,0.3569
892.0,0.3445
893.0,0.3316
894.0,0.3154
895.0,0.2923
896.0,0.2737
897.0,0.2284
898.0,0.2527
899.0,0.1846
900.0,0.2631
901.0,0.1934
902.0,0.2373
903.0,0.2361
904.0,0.313
905.0,0.3001
906.0,0.279
907.0,0.2159
908.0,0.2222
909.0,0.2451
910.0,0.2083
911.0,0.228
912.0,0.2393
913.0,0.211
914.0,0.2109
915.0,0.2282
916.0,0.1918
917.0,0.2518
918.0,0.196
919.0,0.2591
920.0,0.2675
921.0,0.2782
922.0,0.2425
923.0,0.2693
924.0,0.2472
925.0,0.2422
926.0,0.244
927.0,0.2793
928.0,0.1874
929.0,0.1664
930.0,0.1236
931.0,0.1176
932.0,0.07736
933.0,0.0596
934.0,0.02609
935.0,0.06362
936.0,0.03535
937.0,0.03555
938.0,0.0453
939.0,0.1137
940.0,0.1422
941.0,0.1004
942.0,0.1201
943.0,0.07369
944.0,0.08284
945.0,0.105
946.0,0.04645
947.0,0.1036
948.0,0.07533
949.0,0.1456
950.0,0.03074
951.0,0.1445
952.0,0.06873
953.0,0.09466
954.0,0.1228
955.0,0.09644
956.0,0.09938
957.0,0.06823
958.0,0.149
959.0,0.1102
960.0,0.1235
961.0,0.1451
962.0,0.1368
963.0,0.1633
964.0,0.1479
965.0,0.1628
966.0,0.1619
967.0,0.1604
968.0,0.2367
969.0,0.2444
970.0,0.2223
971.0,0.2639
972.0,0.2505
973.0,0.2084
974.0,0.1969
975.0,0.2078
976.0,0.1919
977.0,0.2293
978.0,0.2133
979.0,0.2262
980.0,0.2111
981.0,0.2627
982.0,0.2476
983.0,0.2358
984.0,0.275
985.0,0.2466
986.0,0.2825
987.0,0.2738
988.0,0.2735
989.0,0.2833
990.0,0.2717
991.0,0.2839
992.0,0.2858
993.0,0.2764
994.0,0.286
995.0,0.2861
996.0,0.2844
997.0,0.285
998.0,0.2835
999.0,0.2826
1000.0,0.2799
1001.0,0.2842
1002.0,0.2734
1003.0,0.279
1004.0,0.2714
1005.0,0.2625
1006.0,0.2723
1007.0,0.2783
1008.0,0.2763
1009.0,0.2742
1010.0,0.2727
1011.0,0.277
1012.0,0.274
1013.0,0.2765
1014.0,0.2745
1015.0,0.2726
1016.0,0.2713
1017.0,0.2719
1018.0,0.2712
1019.0,0.2643
1020.0,0.2696
1021.0,0.2695
1022.0,0.267
1023.0,0.2697
1024.0,0.265
1025.0,0.2699
1026.0,0.2685
1027.0,0.2679
1028.0,0.2673
1029.0,0.264
1030.0,0.2662
1031.0,0.265
1032.0,0.2643
1033.0,0.2603
1034.0,0.2604
1035.0,0.2612
1036.0,0.2624
1037.0,0.2582
1038.0,0.2593
1039.0,0.2591
1040.0,0.258
1041.0,0.2589
1042.0,0.2571
1043.0,0.2562
1044.0,0.2571
1045.0,0.2535
1046.0,0.2506
1047.0,0.2528
1048.0,0.2541
1049.0,0.2531
1050.0,0.2518
1051.0,0.2514
1052.0,0.2502
1053.0,0.2481
1054.0,0.2485
1055.0,0.2484
1056.0,0.2474
1057.0,0.2464
1058.0,0.2402
1059.0,0.2403
1060.0,0.2398
1061.0,0.2395
1062.0,0.2405
1063.0,0.238
1064.0,0.2409
1065.0,0.2387
1066.0,0.2343
1067.0,0.2372
1068.0,0.2317
1069.0,0.2248
1070.0,0.2322
1071.0,0.2368
1072.0,0.2333
1073.0,0.2301
1074.0,0.2372
1075.0,0.2223
1076.0,0.2368
1077.0,0.2309
1078.0,0.2257
1079.0,0.2336
1080.0,0.2274
1081.0,0.2186
1082.0,0.2247
1083.0,0.2261
1084.0,0.2174
1085.0,0.2282
1086.0,0.2041
1087.0,0.2134
1088.0,0.2253
1089.0,0.2155
1090.0,0.2092
1091.0,0.2238
1092.0,0.2238
1093.0,0.1819
1094.0,0.2038
1095.0,0.1901
1096.0,0.1798
1097.0,0.2187
1098.0,0.1759
1099.0,0.1847
1100.0,0.1686
1101.0,0.1717
1102.0,0.1619
1103.0,0.1588
1104.0,0.1592
1105.0,0.1798
1106.0,0.125
1107.0,0.1684
1108.0,0.1353
1109.0,0.1369
1110.0,0.1655
1111.0,0.1024
1112.0,0.1364
1113.0,0.07717
1114.0,0.08685
1115.0,0.07139
1116.0,0.05176
1117.0,0.01422
1118.0,0.05774
1119.0,0.02437
1120.0,0.03014
1121.0,0.04234
1122.0,0.01442
1123.0,0.02743
1124.0,0.02309
1125.0,0.03119
1126.0,0.007672
1127.0,0.03549
1128.0,0.01757
1129.0,0.01903
1130.0,0.01164
1131.0,0.07719
1132.0,0.05862
1133.0,0.03184
1134.0,0.005801
1135.0,0.002328
1136.0,0.02477
1137.0,0.07378
1138.0,0.05103
1139.0,0.08759
1140.0,0.06876
1141.0,0.04862
1142.0,0.05806
1143.0,0.0874
1144.0,0.02545
1145.0,0.03073
1146.0,0.03308
1147.0,0.008486
1148.0,0.07512
1149.0,0.05674
1150.0,0.02828
1151.0,0.05061
1152.0,0.06619
1153.0,0.06759
1154.0,0.02982
1155.0,0.09119
1156.0,0.07978
1157.0,0.09398
1158.0,0.09281
1159.0,0.1028
1160.0,0.08539
1161.0,0.1117
1162.0,0.1116
1163.0,0.1623
1164.0,0.1351
1165.0,0.1233
1166.0,0.1258
1167.0,0.139
1168.0,0.1395
1169.0,0.1441
1170.0,0.1601
1171.0,0.1559
1172.0,0.161
1173.0,0.1598
1174.0,0.106
1175.0,0.1581
1176.0,0.1785
1177.0,0.1681
1178.0,0.1201
1179.0,0.18
1180.0,0.1556
1181.0,0.1608
1182.0,0.1041
1183.0,0.1594
1184.0,0.1471
1185.0,0.1398
1186.0,0.1728
1187.0,0.1624
1188.0,0.1047
1189.0,0.1509
1190.0,0.1693
1191.0,0.1564
1192.0,0.1721
1193.0,0.1634
1194.0,0.1694
1195.0,0.1573
1196.0,0.1498
1197.0,0.1708
1198.0,0.1547
1199.0,0.1255
1200.0,0.1612
1201.0,0.1533
1202.0,0.1542
1203.0,0.1519
1204.0,0.1301
1205.0,0.1595
1206.0,0.1793
1207.0,0.1529
1208.0,0.1524
1209.0,0.1559
1210.0,0.1638
1211.0,0.1538
1212.0,0.1487
1213.0,0.1718
1214.0,0.1535
1215.0,0.1502
1216.0,0.1715
1217.0,0.1658
1218.0,0.17
1219.0,0.1673
1220.0,0.1703
1221.0,0.1727
1222.0,0.1677
1223.0,0.1656
1224.0,0.1634
1225.0,0.1715
1226.0,0.1735
1227.0,0.1569
1228.0,0.1751
1229.0,0.1735
1230.0,0.17
1231.0,0.1769
1232.0,0.1757
1233.0,0.167
1234.0,0.1773
1235.0,0.1758
1236.0,0.1774
1237.0,0.1737
1238.0,0.1768
1239.0,0.1745
1240.0,0.1753
1241.0,0.1738
1242.0,0.174
1243.0,0.1726
1244.0,0.1736
1245.0,0.1745
1246.0,0.1735
1247.0,0.1727
1248.0,0.1722
1249.0,0.173
1250.0,0.1718
1251.0,0.1692
1252.0,0.1697
1253.0,0.1674
1254.0,0.165
1255.0,0.1693
1256.0,0.1628
1257.0,0.1615
1258.0,0.166
1259.0,0.1572
1260.0,0.1584
1261.0,0.1461
1262.0,0.1399
1263.0,0.1401
1264.0,0.1253
1265.0,0.1393
1266.0,0.1316
1267.0,0.1356
1268.0,0.126
1269.0,0.06295
1270.0,0.1345
1271.0,0.146
1272.0,0.1469
1273.0,0.1449
1274.0,0.1459
1275.0,0.1486
1276.0,0.1508
1277.0,0.1526
1278.0,0.1569
1279.0,0.1553
1280.0,0.1535
1281.0,0.1471
1282.0,0.1428
1283.0,0.1536
1284.0,0.157
1285.0,0.1583
1286.0,0.161
1287.0,0.1574
1288.0,0.1577
1289.0,0.1506
1290.0,0.1564
1291.0,0.159
1292.0,0.1455
1293.0,0.155
1294.0,0.1537
1295.0,0.1518
1296.0,0.1425
1297.0,0.1331
1298.0,0.147
1299.0,0.1556
1300.0,0.1255
1301.0,0.1305
1302.0,0.1466
1303.0,0.1245
1304.0,0.1005
1305.0,0.1433
1306.0,0.1427
1307.0,0.1048
1308.0,0.1257
1309.0,0.1408
1310.0,0.1023
1311.0,0.1192
1312.0,0.1151
1313.0,0.1116
1314.0,0.09791
1315.0,0.09533
1316.0,0.1162
1317.0,0.1093
1318.0,0.1212
1319.0,0.08799
1320.0,0.08666
1321.0,0.1033
1322.0,0.1031
1323.0,0.07212
1324.0,0.08655
1325.0,0.1139
1326.0,0.09435
1327.0,0.08903
1328.0,0.07491
1329.0,0.05155
1330.0,0.06953
1331.0,0.03686
1332.0,0.03962
1333.0,0.05614
1334.0,0.05071
1335.0,0.0715
1336.0,0.05364
1337.0,0.04644
1338.0,0.05
1339.0,0.05051
1340.0,0.05064
1341.0,0.04591
1342.0,0.04863
1343.0,0.02704
1344.0,0.01674
1345.0,0.02393
1346.0,0.008845
1347.0,0.008485
1348.0,0.0002915
1349.0,0.001228
1350.0,0.001428
1351.0,0.0001929
1352.0,2.492e-05
1353.0,7.014e-07
1354.0,3.806e-06
1355.0,8.085e-09
1356.0,3.351e-07
1357.0,5.105e-07
1358.0,1.007e-08
1359.0,5.265e-10
1360.0,3.274e-09
1361.0,1.081e-12
1362.0,2.546e-15
1363.0,3.015e-09
1364.0,1.331e-09
1365.0,8.11e-16
1366.0,1.63e-08
1367.0,8.808e-09
1368.0,6.085e-18
1369.0,4.893e-10
1370.0,1.744e-10
1371.0,7.58e-12
1372.0,4.982e-09
1373.0,1.872e-07
1374.0,1.406e-06
1375.0,2.284e-06
1376.0,3.536e-06
1377.0,1.479e-06
1378.0,1.622e-05
1379.0,6.307e-07
1380.0,6.35e-07
1381.0,1.368e-08
1382.0,3.959e-09
1383.0,4.713e-11
1384.0,4.682e-10
1385.0,6.24e-09
1386.0,2.638e-09
1387.0,9.787e-07
1388.0,2.382e-08
1389.0,6.144e-06
1390.0,5.02e-06
1391.0,3.188e-06
1392.0,1.952e-07
1393.0,1.314e-06
1394.0,2.81e-07
1395.0,1.406e-09
1396.0,1.601e-12
1397.0,4.34e-07
1398.0,1.675e-05
1399.0,1.106e-05
1400.0,5.734e-13
1401.0,3.103e-12
1402.0,6.87e-05
1403.0,7.311e-05
1404.0,2.053e-05
1405.0,4.81e-10
1406.0,4.031e-05
1407.0,4.971e-06
1408.0,3.493e-05
1409.0,7.657e-06
1410.0,8.95e-06
1411.0,6.664e-05
1412.0,0.0001106
1413.0,0.001918
1414.0,7.55e-06
1415.0,3.023e-06
1416.0,0.00471
1417.0,0.001016
1418.0,0.001002
1419.0,0.0001438
1420.0,0.0006049
1421.0,0.000719
1422.0,0.006181
1423.0,0.001113
1424.0,0.002245
1425.0,0.002989
1426.0,0.004045
1427.0,0.008787
1428.0,0.0002553
1429.0,0.005775
1430.0,0.01201
1431.0,0.01375
1432.0,0.0001964
1433.0,0.008039
1434.0,0.003753
