interpolation:linear
wavelength,value
280.0,7.262e-23
280.5,2.43e-21
281.0,1.313e-20
281.5,4.248e-19
282.0,5.131e-19
282.5,1.222e-18
283.0,3.806e-18
283.5,6.187e-18
284.0,1.017e-16
284.5,2.982e-16
285.0,6.066e-16
285.5,2.792e-15
286.0,1.111e-14
286.5,4.914e-14
287.0,1.402e-13
287.5,5.39e-13
288.0,1.844e-12
288.5,5.312e-12
289.0,1.377e-11
289.5,4.091e-11
290.0,1.129e-10
290.5,2.298e-10
291.0,4.932e-10
291.5,1.418e-09
292.0,2.89e-09
292.5,4.026e-09
293.0,8.565e-09
293.5,2.064e-08
294.0,3.218e-08
294.5,4.116e-08
295.0,6.934e-08
295.5,1.18e-07
296.0,2.229e-07
296.5,3.049e-07
297.0,4.044e-07
297.5,1.05e-06
298.0,1.606e-06
298.5,1.575e-06
299.0,3.38e-06
299.5,5.335e-06
300.0,5.687e-06
300.5,7.962e-06
301.0,1.359e-05
301.5,2.044e-05
302.0,1.694e-05
302.5,3.262e-05
303.0,5.779e-05
303.5,7.279e-05
304.0,6.991e-05
304.5,0.0001109
305.0,0.0001844
305.5,0.0002245
306.0,0.0002225
306.5,0.0002886
307.0,0.0004703
307.5,0.0006864
308.0,0.0007358
308.5,0.0009108
309.0,0.001064
309.5,0.00146
310.0,0.001595
310.5,0.002692
311.0,0.003616
311.5,0.003594
312.0,0.004166
312.5,0.005589
313.0,0.006379
313.5,0.005904
314.0,0.008299
314.5,0.008598
315.0,0.01161
315.5,0.009003
316.0,0.00892
316.5,0.01428
317.0,0.01769
317.5,0.01784
318.0,0.01499
318.5,0.02146
319.0,0.02736
319.5,0.01986
320.0,0.02357
320.5,0.03412
321.0,0.03464
321.5,0.03364
322.0,0.03113
322.5,0.02728
323.0,0.02977
323.5,0.04114
324.0,0.04879
324.5,0.04753
325.0,0.03804
325.5,0.0527
326.0,0.06806
326.5,0.07179
327.0,0.07018
327.5,0.06614
328.0,0.0549
328.5,0.06279
329.0,0.08033
329.5,0.09303
330.0,0.09233
330.5,0.07021
331.0,0.0703
331.5,0.07422
332.0,0.08471
332.5,0.0859
333.0,0.08443
333.5,0.07339
334.0,0.07469
334.5,0.09025
335.0,0.08709
335.5,0.1029
336.0,0.07119
336.5,0.08138
337.0,0.0655
337.5,0.08091
338.0,0.08205
338.5,0.09623
339.0,0.0955
339.5,0.09176
340.0,0.1063
340.5,0.09617
341.0,0.09498
341.5,0.08763
342.0,0.1049
342.5,0.09831
343.0,0.1078
343.5,0.1014
344.0,0.07399
344.5,0.07546
345.0,0.1004
345.5,0.1028
346.0,0.08758
346.5,0.09932
347.0,0.1064
347.5,0.08599
348.0,0.09838
348.5,0.09855
349.0,0.09155
349.5,0.09067
350.0,0.1122
350.5,0.1184
351.0,0.1057
351.5,0.1024
352.0,0.1103
352.5,0.08628
353.0,0.1089
353.5,0.1166
354.0,0.1212
354.5,0.1229
355.0,0.1225
355.5,0.1108
356.0,0.116
356.5,0.09912
357.0,0.08191
357.5,0.1003
358.0,0.07958
358.5,0.06805
359.0,0.09518
359.5,0.1212
360.0,0.1286
360.5,0.1029
361.0,0.09391
361.5,0.1083
362.0,0.09378
362.5,0.1299
363.0,0.1168
363.5,0.1077
364.0,0.1319
364.5,0.1128
365.0,0.1149
365.5,0.1444
366.0,0.1531
366.5,0.144
367.0,0.1404
367.5,0.1458
368.0,0.1277
368.5,0.1289
369.0,0.1393
369.5,0.1486
370.0,0.1586
370.5,0.1232
371.0,0.1318
371.5,0.165
372.0,0.1096
372.5,0.1315
373.0,0.1339
373.5,0.08718
374.0,0.1268
374.5,0.1051
375.0,0.1022
375.5,0.1527
376.0,0.1267
376.5,0.1314
377.0,0.1392
377.5,0.163
378.0,0.1768
378.5,0.1672
379.0,0.1381
379.5,0.1261
380.0,0.1312
380.5,0.1591
381.0,0.1597
381.5,0.1267
382.0,0.1127
382.5,0.09619
383.0,0.08916
383.5,0.08596
384.0,0.09491
384.5,0.1397
385.0,0.1387
385.5,0.1293
386.0,0.1109
386.5,0.1458
387.0,0.1212
387.5,0.1363
388.0,0.1259
388.5,0.1246
389.0,0.1346
389.5,0.1632
390.0,0.164
390.5,0.151
391.0,0.1779
391.5,0.1816
392.0,0.1531
392.5,0.1372
393.0,0.07644
393.5,0.05563
394.0,0.1133
394.5,0.1442
395.0,0.1761
395.5,0.179
396.0,0.1553
396.5,0.09092
397.0,0.06831
397.5,0.139
398.0,0.1948
398.5,0.2015
399.0,0.2185
399.5,0.218
400.0,0.2265
401.0,0.2272
402.0,0.2402
403.0,0.2287
404.0,0.2256
405.0,0.2259
406.0,0.2227
407.0,0.2196
408.0,0.2284
409.0,0.2448
410.0,0.2143
411.0,0.2326
412.0,0.2505
413.0,0.2445
414.0,0.248
415.0,0.2492
416.0,0.2541
417.0,0.2482
418.0,0.244
419.0,0.2477
420.0,0.2469
421.0,0.2588
422.0,0.2463
423.0,0.2409
424.0,0.2551
425.0,0.255
426.0,0.2491
427.0,0.2448
428.0,0.2388
429.0,0.2268
430.0,0.1989
431.0,0.1972
432.0,0.2551
433.0,0.2569
434.0,0.2388
435.0,0.2496
436.0,0.2819
437.0,0.2789
438.0,0.2543
439.0,0.2626
440.0,0.2715
441.0,0.2818
442.0,0.3026
443.0,0.2946
444.0,0.3017
445.0,0.2953
446.0,0.2827
447.0,0.3065
448.0,0.311
449.0,0.3132
450.0,0.3224
451.0,0.3348
452.0,0.323
453.0,0.3043
454.0,0.3183
455.0,0.3204
456.0,0.3284
457.0,0.334
458.0,0.3222
459.0,0.3208
460.0,0.3215
461.0,0.3291
462.0,0.3323
463.0,0.3301
464.0,0.3257
465.0,0.3226
466.0,0.3265
467.0,0.3203
468.0,0.3242
469.0,0.326
470.0,0.3155
471.0,0.3154
472.0,0.3324
473.0,0.3282
474.0,0.3281
475.0,0.3303
476.0,0.3195
477.0,0.3197
478.0,0.3288
479.0,0.3273
480.0,0.3284
481.0,0.3353
482.0,0.3379
483.0,0.3349
484.0,0.3287
485.0,0.3138
486.0,0.2751
487.0,0.2889
488.0,0.317
489.0,0.3178
490.0,0.3348
491.0,0.3295
492.0,0.3114
493.0,0.3218
494.0,0.3252
495.0,0.3282
496.0,0.3303
497.0,0.3353
498.0,0.3196
499.0,0.3233
500.0,0.3133
501.0,0.307
502.0,0.3015
503.0,0.3125
504.0,0.3012
505.0,0.3147
506.0,0.3248
507.0,0.3093
508.0,0.3007
509.0,0.31
510.0,0.3091
511.0,0.3182
512.0,0.322
513.0,0.3049
514.0,0.3031
515.0,0.3001
516.0,0.2992
517.0,0.2661
518.0,0.2796
519.0,0.2932
520.0,0.3037
521.0,0.3065
522.0,0.3064
523.0,0.3006
524.0,0.3107
525.0,0.3134
526.0,0.299
527.0,0.281
528.0,0.2966
529.0,0.3121
530.0,0.3072
531.0,0.3114
532.0,0.3005
533.0,0.2917
534.0,0.3007
535.0,0.3077
536.0,0.3109
537.0,0.299
538.0,0.3045
539.0,0.3019
540.0,0.2892
541.0,0.29
542.0,0.2986
543.0,0.2963
544.0,0.3005
545.0,0.2997
546.0,0.3002
547.0,0.3008
548.0,0.2976
549.0,0.2988
550.0,0.3024
551.0,0.2989
552.0,0.301
553.0,0.2954
554.0,0.3024
555.0,0.3027
556.0,0.2986
557.0,0.289
558.0,0.2862
559.0,0.2803
560.0,0.2834
561.0,0.2865
562.0,0.2837
563.0,0.2906
564.0,0.282
565.0,0.2791
566.0,0.2744
567.0,0.2789
568.0,0.2745
569.0,0.2645
570.0,0.2649
571.0,0.2641
572.0,0.2681
573.0,0.2705
574.0,0.2691
575.0,0.2632
576.0,0.2608
577.0,0.264
578.0,0.2611
579.0,0.2638
580.0,0.2715
581.0,0.2749
582.0,0.2819
583.0,0.284
584.0,0.2875
585.0,0.2811
586.0,0.2754
587.0,0.2803
588.0,0.2692
589.0,0.2302
590.0,0.2413
591.0,0.2604
592.0,0.2542
593.0,0.2618
594.0,0.2584
595.0,0.2486
596.0,0.2655
597.0,0.2607
598.0,0.2622
599.0,0.2633
600.0,0.2654
601.0,0.2646
602.0,0.2631
603.0,0.2682
604.0,0.273
605.0,0.272
606.0,0.2717
607.0,0.2752
608.0,0.273
609.0,0.2741
610.0,0.273
611.0,0.2749
612.0,0.2747
613.0,0.2716
614.0,0.2686
615.0,0.2752
616.0,0.2667
617.0,0.2666
618.0,0.2772
619.0,0.2747
620.0,0.2764
621.0,0.2762
622.0,0.2725
623.0,0.268
624.0,0.2639
625.0,0.2632
626.0,0.2668
627.0,0.2681
628.0,0.23
629.0,0.2545
630.0,0.2479
631.0,0.2605
632.0,0.2587
633.0,0.2695
634.0,0.2692
635.0,0.2746
636.0,0.2723
637.0,0.2778
638.0,0.2822
639.0,0.2799
640.0,0.2783
641.0,0.2788
642.0,0.2785
643.0,0.2824
644.0,0.2824
645.0,0.2824
646.0,0.2733
647.0,0.2642
648.0,0.2651
649.0,0.2588
650.0,0.2677
651.0,0.2806
652.0,0.2619
653.0,0.2774
654.0,0.2748
655.0,0.261
656.0,0.2339
657.0,0.2407
658.0,0.2722
659.0,0.2751
660.0,0.2769
661.0,0.2793
662.0,0.2787
663.0,0.2736
664.0,0.2789
665.0,0.2807
666.0,0.2815
667.0,0.2821
668.0,0.2831
669.0,0.288
670.0,0.2871
671.0,0.2875
672.0,0.2854
673.0,0.2901
674.0,0.2894
675.0,0.2871
676.0,0.2894
677.0,0.2869
678.0,0.288
679.0,0.2836
680.0,0.2861
681.0,0.2843
682.0,0.2841
683.0,0.2836
684.0,0.2821
685.0,0.285
686.0,0.2828
687.0,0.1084
688.0,0.1578
689.0,0.1596
690.0,0.1797
691.0,0.2045
692.0,0.2253
693.0,0.223
694.0,0.2241
695.0,0.2443
696.0,0.2455
697.0,0.2726
698.0,0.2681
699.0,0.2531
700.0,0.2496
701.0,0.2433
702.0,0.2484
703.0,0.2501
704.0,0.2633
705.0,0.2635
706.0,0.2652
707.0,0.2663
708.0,0.2665
709.0,0.2707
710.0,0.2686
711.0,0.2696
712.0,0.2706
713.0,0.2661
714.0,0.2678
715.0,0.2556
716.0,0.2549
717.0,0.1909
718.0,0.1736
719.0,0.1567
720.0,0.1609
721.0,0.1939
722.0,0.2401
723.0,0.2148
724.0,0.1823
725.0,0.1763
726.0,0.1851
727.0,0.1953
728.0,0.1745
729.0,0.1912
730.0,0.1992
731.0,0.1891
732.0,0.2135
733.0,0.2356
734.0,0.2448
735.0,0.2378
736.0,0.2367
737.0,0.238
738.0,0.2503
739.0,0.2457
740.0,0.2547
741.0,0.2536
742.0,0.2556
743.0,0.2625
744.0,0.2628
745.0,0.2638
746.0,0.265
747.0,0.2658
748.0,0.2654
749.0,0.2624
750.0,0.2624
751.0,0.2598
752.0,0.261
753.0,0.2625
754.0,0.2631
755.0,0.2615
756.0,0.2615
757.0,0.2619
758.0,0.2584
759.0,0.2472
760.0,0.005262
761.0,0.001913
762.0,0.05281
763.0,0.01161
764.0,0.0274
765.0,0.05259
766.0,0.08922
767.0,0.1476
768.0,0.2067
769.0,0.2203
770.0,0.2388
771.0,0.2458
772.0,0.2479
773.0,0.2501
774.0,0.2492
775.0,0.2476
776.0,0.2507
777.0,0.2475
778.0,0.2459
779.0,0.2462
780.0,0.2449
781.0,0.2452
782.0,0.2469
783.0,0.2427
784.0,0.2441
785.0,0.2419
786.0,0.2441
787.0,0.2354
788.0,0.2305
789.0,0.2304
790.0,0.2188
791.0,0.2263
792.0,0.2256
793.0,0.2214
794.0,0.2308
795.0,0.2331
796.0,0.2178
797.0,0.2172
798.0,0.2318
799.0,0.2289
800.0,0.2231
801.0,0.2203
802.0,0.2194
803.0,0.2166
804.0,0.2179
805.0,0.2197
806.0,0.2301
807.0,0.2265
808.0,0.2269
809.0,0.2194
810.0,0.2159
811.0,0.2128
812.0,0.2001
813.0,0.1945
814.0,0.1578
815.0,0.1581
816.0,0.145
817.0,0.148
818.0,0.1395
819.0,0.1671
820.0,0.1537
821.0,0.1976
822.0,0.189
823.0,0.1031
824.0,0.1764
825.0,0.1946
826.0,0.1809
827.0,0.1971
828.0,0.1497
829.0,0.1811
830.0,0.1778
831.0,0.1781
832.0,0.1695
833.0,0.188
834.0,0.1766
835.0,0.2072
836.0,0.1887
837.0,0.2077
838.0,0.1965
839.0,0.2046
840.0,0.2103
841.0,0.2053
842.0,0.2089
843.0,0.2122
844.0,0.2075
845.0,0.2168
846.0,0.2165
847.0,0.2134
848.0,0.2106
849.0,0.2046
850.0,0.1962
851.0,0.2061
852.0,0.2055
853.0,0.199
854.0,0.1708
855.0,0.1891
856.0,0.206
857.0,0.2116
858.0,0.2096
859.0,0.2105
860.0,0.2113
861.0,0.21
862.0,0.2136
863.0,0.2186
864.0,0.2078
865.0,0.2061
866.0,0.1853
867.0,0.1935
868.0,0.2106
869.0,0.2063
870.0,0.2122
871.0,0.2093
872.0,0.2087
873.0,0.2083
874.0,0.2058
875.0,0.2016
876.0,0.2036
877.0,0.2057
878.0,0.2077
879.0,0.2046
880.0,0.2002
881.0,0.1965
882.0,0.2004
883.0,0.2018
884.0,0.2006
885.0,0.2021
886.0,0.19
887.0,0.1941
888.0,0.1959
889.0,0.2002
890.0,0.1958
891.0,0.1968
892.0,0.1876
893.0,0.1787
894.0,0.1651
895.0,0.1474
896.0,0.1368
897.0,0.1084
898.0,0.1222
899.0,0.08328
900.0,0.1312
901.0,0.08729
902.0,0.1148
903.0,0.1112
904.0,0.1634
905.0,0.155
906.0,0.1423
907.0,0.09998
908.0,0.1056
909.0,0.1195
910.0,0.09527
911.0,0.1106
912.0,0.1151
913.0,0.09613
914.0,0.09767
915.0,0.1044
916.0,0.08734
917.0,0.1209
918.0,0.08847
919.0,0.1271
920.0,0.1377
921.0,0.1419
922.0,0.1191
923.0,0.1382
924.0,0.1191
925.0,0.1172
926.0,0.1167
927.0,0.1381
928.0,0.07939
929.0,0.06717
930.0,0.04416
931.0,0.04128
932.0,0.02259
933.0,0.01582
934.0,0.004464
935.0,0.01799
936.0,0.008085
937.0,0.008188
938.0,0.01105
939.0,0.03974
940.0,0.05388
941.0,0.03348
942.0,0.04193
943.0,0.02255
944.0,0.02903
945.0,0.03615
946.0,0.0121
947.0,0.03449
948.0,0.02482
949.0,0.05347
950.0,0.006974
951.0,0.05293
952.0,0.02063
953.0,0.03173
954.0,0.04503
955.0,0.03288
956.0,0.04017
957.0,0.02047
958.0,0.06281
959.0,0.04105
960.0,0.04617
961.0,0.05892
962.0,0.05566
963.0,0.07077
964.0,0.06308
965.0,0.06968
966.0,0.06963
967.0,0.06809
968.0,0.1202
969.0,0.1202
970.0,0.1084
971.0,0.1372
972.0,0.1279
973.0,0.09843
974.0,0.09296
975.0,0.09992
976.0,0.08744
977.0,0.1158
978.0,0.1032
979.0,0.1113
980.0,0.1032
981.0,0.1367
982.0,0.1259
983.0,0.1184
984.0,0.1474
985.0,0.1249
986.0,0.1543
987.0,0.1474
988.0,0.1475
989.0,0.1567
990.0,0.1463
991.0,0.1567
992.0,0.1581
993.0,0.1503
994.0,0.1586
995.0,0.1592
996.0,0.1577
997.0,0.1583
998.0,0.1572
999.0,0.1569
1000.0,0.1546
1001.0,0.1579
1002.0,0.1484
1003.0,0.1548
1004.0,0.1496
1005.0,0.146
1006.0,0.1509
1007.0,0.1545
1008.0,0.1528
1009.0,0.151
1010.0,0.1498
1011.0,0.1538
1012.0,0.1516
1013.0,0.1537
1014.0,0.1526
1015.0,0.1515
1016.0,0.1507
1017.0,0.1509
1018.0,0.151
1019.0,0.1458
1020.0,0.1499
1021.0,0.15
1022.0,0.1481
1023.0,0.1496
1024.0,0.1457
1025.0,0.1501
1026.0,0.149
1027.0,0.1488
1028.0,0.1483
1029.0,0.1463
1030.0,0.148
1031.0,0.1472
1032.0,0.1469
1033.0,0.1447
1034.0,0.1448
1035.0,0.1452
1036.0,0.1457
1037.0,0.1435
1038.0,0.144
1039.0,0.1438
1040.0,0.1432
1041.0,0.1436
1042.0,0.1425
1043.0,0.142
1044.0,0.1423
1045.0,0.1403
1046.0,0.1386
1047.0,0.1397
1048.0,0.1403
1049.0,0.1397
1050.0,0.1388
1051.0,0.1384
1052.0,0.1377
1053.0,0.1363
1054.0,0.1363
1055.0,0.1361
1056.0,0.1353
1057.0,0.1346
1058.0,0.131
1059.0,0.1308
1060.0,0.1305
1061.0,0.1301
1062.0,0.1305
1063.0,0.129
1064.0,0.1306
1065.0,0.1289
1066.0,0.1269
1067.0,0.1284
1068.0,0.125
1069.0,0.1216
1070.0,0.1253
1071.0,0.1289
1072.0,0.1262
1073.0,0.1246
1074.0,0.1298
1075.0,0.119
1076.0,0.1294
1077.0,0.1247
1078.0,0.121
1079.0,0.1283
1080.0,0.1227
1081.0,0.1165
1082.0,0.1222
1083.0,0.1238
1084.0,0.1153
1085.0,0.1233
1086.0,0.1068
1087.0,0.114
1088.0,0.123
1089.0,0.1144
1090.0,0.11
1091.0,0.1214
1092.0,0.1217
1093.0,0.09215
1094.0,0.11
1095.0,0.09607
1096.0,0.08919
1097.0,0.119
1098.0,0.08591
1099.0,0.09108
1100.0,0.08086
1101.0,0.08355
1102.0,0.07673
1103.0,0.07387
1104.0,0.07438
1105.0,0.08795
1106.0,0.05184
1107.0,0.08086
1108.0,0.05929
1109.0,0.06041
1110.0,0.07754
1111.0,0.04027
1112.0,0.06045
1113.0,0.02768
1114.0,0.03106
1115.0,0.02467
1116.0,0.01503
1117.0,0.002538
1118.0,0.01711
1119.0,0.005332
1120.0,0.006191
1121.0,0.009514
1122.0,0.002091
1123.0,0.005675
1124.0,0.00475
1125.0,0.006961
1126.0,0.0008323
1127.0,0.008015
1128.0,0.002723
1129.0,0.003018
1130.0,0.001857
1131.0,0.0229
1132.0,0.01623
1133.0,0.006475
1134.0,0.0006258
1135.0,0.0002956
1136.0,0.004334
1137.0,0.02097
1138.0,0.01375
1139.0,0.03126
1140.0,0.02183
1141.0,0.01324
1142.0,0.01691
1143.0,0.02913
1144.0,0.006015
1145.0,0.006143
1146.0,0.006601
1147.0,0.0009007
1148.0,0.02413
1149.0,0.01648
1150.0,0.007539
1151.0,0.0137
1152.0,0.02015
1153.0,0.02251
1154.0,0.006539
1155.0,0.03254
1156.0,0.02693
1157.0,0.03606
1158.0,0.03547
1159.0,0.04033
1160.0,0.03331
1161.0,0.04815
1162.0,0.04747
1163.0,0.07887
1164.0,0.06249
1165.0,0.05389
1166.0,0.05801
1167.0,0.0656
1168.0,0.06545
1169.0,0.06812
1170.0,0.0788
1171.0,0.07683
1172.0,0.0817
1173.0,0.07873
1174.0,0.04636
1175.0,0.08027
1176.0,0.09521
1177.0,0.08652
1178.0,0.05714
1179.0,0.09583
1180.0,0.0781
1181.0,0.08078
1182.0,0.04648
1183.0,0.08096
1184.0,0.07259
1185.0,0.06708
1186.0,0.08964
1187.0,0.082
1188.0,0.04532
1189.0,0.07598
1190.0,0.08857
1191.0,0.07715
1192.0,0.09049
1193.0,0.08431
1194.0,0.08852
1195.0,0.07901
1196.0,0.07368
1197.0,0.0902
1198.0,0.08094
1199.0,0.05954
1200.0,0.08335
1201.0,0.07672
1202.0,0.07973
1203.0,0.07663
1204.0,0.06356
1205.0,0.08394
1206.0,0.09722
1207.0,0.07796
1208.0,0.07961
1209.0,0.0815
1210.0,0.08719
1211.0,0.07992
1212.0,0.07316
1213.0,0.09112
1214.0,0.07685
1215.0,0.07508
1216.0,0.09165
1217.0,0.08746
1218.0,0.0907
1219.0,0.08833
1220.0,0.09101
1221.0,0.0933
1222.0,0.09007
1223.0,0.08833
1224.0,0.08555
1225.0,0.09215
1226.0,0.09445
1227.0,0.08177
1228.0,0.09592
1229.0,0.0945
1230.0,0.09189
1231.0,0.09781
1232.0,0.0971
1233.0,0.08933
1234.0,0.09881
1235.0,0.09742
1236.0,0.09873
1237.0,0.09569
1238.0,0.09842
1239.0,0.09712
1240.0,0.09774
1241.0,0.09603
1242.0,0.09693
1243.0,0.09622
1244.0,0.0965
1245.0,0.09715
1246.0,0.09663
1247.0,0.09589
1248.0,0.09518
1249.0,0.09605
1250.0,0.09508
1251.0,0.09305
1252.0,0.09409
1253.0,0.0915
1254.0,0.08924
1255.0,0.09352
1256.0,0.08754
1257.0,0.08638
1258.0,0.09065
1259.0,0.0823
1260.0,0.08335
1261.0,0.07269
1262.0,0.06753
1263.0,0.06751
1264.0,0.05596
1265.0,0.06718
1266.0,0.06079
1267.0,0.06453
1268.0,0.05703
1269.0,0.01689
1270.0,0.06323
1271.0,0.0733
1272.0,0.07407
1273.0,0.07261
1274.0,0.07378
1275.0,0.07589
1276.0,0.07785
1277.0,0.08002
1278.0,0.08387
1279.0,0.08313
1280.0,0.08214
1281.0,0.07954
1282.0,0.07856
1283.0,0.08421
1284.0,0.08589
1285.0,0.0868
1286.0,0.089
1287.0,0.0857
1288.0,0.08636
1289.0,0.07979
1290.0,0.08573
1291.0,0.08765
1292.0,0.07572
1293.0,0.08446
1294.0,0.08361
1295.0,0.08074
1296.0,0.0733
1297.0,0.06678
1298.0,0.07774
1299.0,0.0851
1300.0,0.06263
1301.0,0.06592
1302.0,0.07781
1303.0,0.06253
1304.0,0.04545
1305.0,0.07574
1306.0,0.07453
1307.0,0.04924
1308.0,0.06401
1309.0,0.07224
1310.0,0.04737
1311.0,0.05941
1312.0,0.05702
1313.0,0.0534
1314.0,0.04473
1315.0,0.04265
1316.0,0.0569
1317.0,0.05251
1318.0,0.06068
1319.0,0.03808
1320.0,0.03839
1321.0,0.04825
1322.0,0.04685
1323.0,0.02811
1324.0,0.03782
1325.0,0.05459
1326.0,0.04244
1327.0,0.03907
1328.0,0.03099
1329.0,0.01759
1330.0,0.02617
1331.0,0.01053
1332.0,0.01203
1333.0,0.01772
1334.0,0.01898
1335.0,0.02707
1336.0,0.01807
1337.0,0.0156
1338.0,0.01641
1339.0,0.01687
1340.0,0.01801
1341.0,0.01371
1342.0,0.01501
1343.0,0.005673
1344.0,0.0038
1345.0,0.004906
1346.0,0.0009915
1347.0,0.0008213
1348.0,1.231e-05
1349.0,5.559e-05
1350.0,6.682e-05
1351.0,5.882e-06
1352.0,9.998e-07
1353.0,4.943e-08
1354.0,1.755e-07
1355.0,1.357e-09
1356.0,2.396e-08
1357.0,3.637e-08
1358.0,1.593e-09
1359.0,2.005e-10
1360.0,7.248e-10
1361.0,8.107e-13
1362.0,2.218e-15
1363.0,9.745e-10
1364.0,4.023e-10
1365.0,7.742e-16
1366.0,4.223e-09
1367.0,1.724e-09
1368.0,5.978e-18
1369.0,1.482e-10
1370.0,7.3e-11
1371.0,4.138e-12
1372.0,9.351e-10
1373.0,1.887e-08
1374.0,8.825e-08
1375.0,1.591e-07
1376.0,1.495e-07
1377.0,6.769e-08
1378.0,6.554e-07
1379.0,2.856e-08
1380.0,3.945e-08
1381.0,1.026e-09
1382.0,8.195e-10
1383.0,1.225e-11
1384.0,1.606e-10
1385.0,7.692e-10
1386.0,7.224e-10
1387.0,8.75e-08
1388.0,1.737e-09
1389.0,3.004e-07
1390.0,2.562e-07
1391.0,1.708e-07
1392.0,1.114e-08
1393.0,6.001e-08
1394.0,2.983e-08
1395.0,2.185e-10
1396.0,1.055e-12
1397.0,2.327e-08
1398.0,6.891e-07
1399.0,4.386e-07
1400.0,4.513e-13
1401.0,1.872e-12
1402.0,2.007e-06
1403.0,1.994e-06
1404.0,5.471e-07
1405.0,1.034e-10
1406.0,1.243e-06
1407.0,1.545e-07
1408.0,1.032e-06
1409.0,3.212e-07
1410.0,2.862e-07
1411.0,1.808e-06
1412.0,3.214e-06
1413.0,7.484e-05
1414.0,2.332e-07
