interpolation:linear
wavelength,value
280.0,4.466e-23
280.5,1.505e-21
281.0,8.161e-21
281.5,2.658e-19
282.0,4.892e-19
282.5,1.128e-18
283.0,3.47e-18
283.5,5.628e-18
284.0,9.2e-17
284.5,2.701e-16
285.0,7.563e-16
285.5,3.049e-15
286.0,1.186e-14
286.5,5.085e-14
287.0,1.433e-13
287.5,5.445e-13
288.0,1.697e-12
288.5,4.826e-12
289.0,1.244e-11
289.5,3.685e-11
290.0,1.017e-10
290.5,2.073e-10
291.0,4.456e-10
291.5,1.284e-09
292.0,2.634e-09
292.5,3.662e-09
293.0,7.77e-09
293.5,1.866e-08
294.0,2.909e-08
294.5,3.529e-08
295.0,5.93e-08
295.5,1.001e-07
296.0,1.872e-07
296.5,2.533e-07
297.0,3.328e-07
297.5,8.521e-07
298.0,1.286e-06
298.5,1.248e-06
299.0,2.652e-06
299.5,4.11e-06
300.0,4.337e-06
300.5,6.009e-06
301.0,1.009e-05
301.5,1.495e-05
302.0,1.23e-05
302.5,2.348e-05
303.0,4.059e-05
303.5,5.036e-05
304.0,4.793e-05
304.5,7.436e-05
305.0,0.0001201
305.5,0.0001438
306.0,0.0001417
306.5,0.000182
307.0,0.0002907
307.5,0.0004169
308.0,0.0004457
308.5,0.0005474
309.0,0.0005884
309.5,0.0008262
310.0,0.0009126
310.5,0.001549
311.0,0.002102
311.5,0.002098
312.0,0.002486
312.5,0.003388
313.0,0.003899
313.5,0.00358
314.0,0.00513
314.5,0.005459
315.0,0.007408
315.5,0.005667
316.0,0.005741
316.5,0.009375
317.0,0.01161
317.5,0.01164
318.0,0.00991
318.5,0.01458
319.0,0.01884
319.5,0.01337
320.0,0.01581
320.5,0.02355
321.0,0.02454
321.5,0.02389
322.0,0.02149
322.5,0.01885
323.0,0.02096
323.5,0.0306
324.0,0.03646
324.5,0.03508
325.0,0.02685
325.5,0.03776
326.0,0.05099
326.5,0.05456
327.0,0.05305
327.5,0.04964
328.0,0.04035
328.5,0.0473
329.0,0.06161
329.5,0.07172
330.0,0.07086
330.5,0.05313
331.0,0.05292
331.5,0.05646
332.0,0.06538
332.5,0.06672
333.0,0.06532
333.5,0.05616
334.0,0.05704
334.5,0.06975
335.0,0.06777
335.5,0.0805
336.0,0.0557
336.5,0.06308
337.0,0.0505
337.5,0.06225
338.0,0.06375
338.5,0.07529
339.0,0.07477
339.5,0.07179
340.0,0.08255
340.5,0.07477
341.0,0.0743
341.5,0.06863
342.0,0.08218
342.5,0.07703
343.0,0.0844
343.5,0.07928
344.0,0.0575
344.5,0.05894
345.0,0.07856
345.5,0.08048
346.0,0.06856
346.5,0.07776
347.0,0.08322
347.5,0.06724
348.0,0.07698
348.5,0.07714
349.0,0.07167
349.5,0.07096
350.0,0.08784
350.5,0.09268
351.0,0.08264
351.5,0.07994
352.0,0.08617
352.5,0.06745
353.0,0.08513
353.5,0.09117
354.0,0.09475
354.5,0.09611
355.0,0.09575
355.5,0.0866
356.0,0.0907
356.5,0.07748
357.0,0.06402
357.5,0.07842
358.0,0.06219
358.5,0.05318
359.0,0.07437
359.5,0.09465
360.0,0.1004
360.5,0.08035
361.0,0.07334
361.5,0.08457
362.0,0.07323
362.5,0.1015
363.0,0.09121
363.5,0.08408
364.0,0.1029
364.5,0.08801
365.0,0.08968
365.5,0.1126
366.0,0.1195
366.5,0.1124
367.0,0.1095
367.5,0.1137
368.0,0.09956
368.5,0.1005
369.0,0.1086
369.5,0.1159
370.0,0.1236
370.5,0.09604
371.0,0.1027
371.5,0.1286
372.0,0.08539
372.5,0.1025
373.0,0.1043
373.5,0.06793
374.0,0.09878
374.5,0.08188
375.0,0.07965
375.5,0.119
376.0,0.09869
376.5,0.1023
377.0,0.1084
377.5,0.127
378.0,0.1377
378.5,0.1302
379.0,0.1075
379.5,0.09824
380.0,0.1022
380.5,0.1239
381.0,0.1243
381.5,0.09867
382.0,0.08773
382.5,0.07489
383.0,0.06941
383.5,0.06692
384.0,0.07388
384.5,0.1088
385.0,0.108
385.5,0.1007
386.0,0.08629
386.5,0.1135
387.0,0.09436
387.5,0.1061
388.0,0.09802
388.5,0.09699
389.0,0.1048
389.5,0.127
390.0,0.1276
390.5,0.1175
391.0,0.1385
391.5,0.1414
392.0,0.1192
392.5,0.1068
393.0,0.05951
393.5,0.0433
394.0,0.08819
394.5,0.1122
395.0,0.1371
395.5,0.1393
396.0,0.1209
396.5,0.07078
397.0,0.05318
397.5,0.1082
398.0,0.1517
398.5,0.1569
399.0,0.1702
399.5,0.1698
400.0,0.1763
401.0,0.1764
402.0,0.1865
403.0,0.1776
404.0,0.1752
405.0,0.1754
406.0,0.173
407.0,0.1706
408.0,0.1774
409.0,0.1902
410.0,0.1665
411.0,0.1808
412.0,0.1947
413.0,0.1901
414.0,0.1928
415.0,0.1938
416.0,0.1976
417.0,0.1931
418.0,0.1898
419.0,0.1927
420.0,0.1922
421.0,0.2014
422.0,0.1917
423.0,0.1876
424.0,0.1986
425.0,0.1986
426.0,0.194
427.0,0.1907
428.0,0.1861
429.0,0.1768
430.0,0.155
431.0,0.1537
432.0,0.199
433.0,0.2004
434.0,0.1863
435.0,0.1947
436.0,0.22
437.0,0.2177
438.0,0.1986
439.0,0.205
440.0,0.2119
441.0,0.2201
442.0,0.2363
443.0,0.23
444.0,0.2356
445.0,0.2307
446.0,0.221
447.0,0.2397
448.0,0.2432
449.0,0.245
450.0,0.2523
451.0,0.262
452.0,0.2528
453.0,0.2382
454.0,0.2494
455.0,0.251
456.0,0.2573
457.0,0.2616
458.0,0.2524
459.0,0.2512
460.0,0.2517
461.0,0.2577
462.0,0.2603
463.0,0.2587
464.0,0.2554
465.0,0.2531
466.0,0.2563
467.0,0.2514
468.0,0.2545
469.0,0.2558
470.0,0.2476
471.0,0.2476
472.0,0.2609
473.0,0.2576
474.0,0.2575
475.0,0.2591
476.0,0.2505
477.0,0.2505
478.0,0.2576
479.0,0.2565
480.0,0.2574
481.0,0.2629
482.0,0.2651
483.0,0.2628
484.0,0.2581
485.0,0.2466
486.0,0.2163
487.0,0.2273
488.0,0.2494
489.0,0.25
490.0,0.2635
491.0,0.2594
492.0,0.2451
493.0,0.2533
494.0,0.256
495.0,0.2585
496.0,0.2601
497.0,0.2641
498.0,0.2516
499.0,0.2544
500.0,0.2465
501.0,0.2413
502.0,0.2368
503.0,0.2453
504.0,0.2358
505.0,0.2469
506.0,0.2549
507.0,0.2428
508.0,0.2363
509.0,0.2439
510.0,0.2434
511.0,0.2507
512.0,0.2539
513.0,0.2404
514.0,0.239
515.0,0.2366
516.0,0.2359
517.0,0.2097
518.0,0.2204
519.0,0.2311
520.0,0.2393
521.0,0.2414
522.0,0.2414
523.0,0.2367
524.0,0.2445
525.0,0.2464
526.0,0.235
527.0,0.2207
528.0,0.2328
529.0,0.2449
530.0,0.241
531.0,0.2442
532.0,0.2356
533.0,0.2287
534.0,0.2357
535.0,0.2413
536.0,0.2439
537.0,0.2347
538.0,0.239
539.0,0.237
540.0,0.227
541.0,0.2274
542.0,0.2339
543.0,0.2322
544.0,0.2353
545.0,0.2348
546.0,0.235
547.0,0.2357
548.0,0.2333
549.0,0.2342
550.0,0.237
551.0,0.2343
552.0,0.2359
553.0,0.2315
554.0,0.237
555.0,0.2372
556.0,0.2339
557.0,0.2263
558.0,0.224
559.0,0.2192
560.0,0.2216
561.0,0.2239
562.0,0.2215
563.0,0.2268
564.0,0.2199
565.0,0.2175
566.0,0.2138
567.0,0.217
568.0,0.2132
569.0,0.2048
570.0,0.2051
571.0,0.2047
572.0,0.2073
573.0,0.209
574.0,0.2078
575.0,0.2031
576.0,0.2013
577.0,0.2039
578.0,0.2018
579.0,0.2042
580.0,0.2107
581.0,0.2138
582.0,0.2196
583.0,0.2216
584.0,0.2245
585.0,0.2196
586.0,0.2152
587.0,0.2189
588.0,0.2094
589.0,0.1775
590.0,0.1861
591.0,0.2019
592.0,0.1964
593.0,0.203
594.0,0.2002
595.0,0.1918
596.0,0.2064
597.0,0.2021
598.0,0.2038
599.0,0.2048
600.0,0.2067
601.0,0.2064
602.0,0.2052
603.0,0.2094
604.0,0.2132
605.0,0.2126
606.0,0.2125
607.0,0.2154
608.0,0.2138
609.0,0.2149
610.0,0.214
611.0,0.2158
612.0,0.2157
613.0,0.2134
614.0,0.2112
615.0,0.2165
616.0,0.2099
617.0,0.2099
618.0,0.2184
619.0,0.2165
620.0,0.2179
621.0,0.2176
622.0,0.2148
623.0,0.2113
624.0,0.208
625.0,0.2073
626.0,0.2101
627.0,0.2107
628.0,0.1766
629.0,0.1985
630.0,0.1931
631.0,0.2044
632.0,0.2034
633.0,0.2124
634.0,0.2127
635.0,0.2172
636.0,0.2157
637.0,0.2203
638.0,0.2241
639.0,0.2225
640.0,0.2215
641.0,0.2221
642.0,0.2221
643.0,0.2252
644.0,0.2254
645.0,0.2253
646.0,0.2175
647.0,0.209
648.0,0.2101
649.0,0.2047
650.0,0.2135
651.0,0.224
652.0,0.2077
653.0,0.2217
654.0,0.2196
655.0,0.2079
656.0,0.1868
657.0,0.1924
658.0,0.2181
659.0,0.2207
660.0,0.2223
661.0,0.2246
662.0,0.2239
663.0,0.2199
664.0,0.2244
665.0,0.2261
666.0,0.2269
667.0,0.2274
668.0,0.2284
669.0,0.2325
670.0,0.2319
671.0,0.2323
672.0,0.2307
673.0,0.2345
674.0,0.2341
675.0,0.2323
676.0,0.2343
677.0,0.2323
678.0,0.2333
679.0,0.2298
680.0,0.2318
681.0,0.2304
682.0,0.2302
683.0,0.2299
684.0,0.2287
685.0,0.2311
686.0,0.2292
687.0,0.07563
688.0,0.1163
689.0,0.1178
690.0,0.1353
691.0,0.1574
692.0,0.1765
693.0,0.1749
694.0,0.177
695.0,0.1952
696.0,0.1964
697.0,0.2204
698.0,0.2167
699.0,0.203
700.0,0.2
701.0,0.194
702.0,0.1989
703.0,0.2008
704.0,0.2124
705.0,0.2124
706.0,0.2141
707.0,0.2152
708.0,0.2153
709.0,0.2195
710.0,0.2173
711.0,0.2184
712.0,0.2197
713.0,0.2156
714.0,0.2171
715.0,0.2065
716.0,0.2058
717.0,0.1485
718.0,0.135
719.0,0.1215
720.0,0.1239
721.0,0.1525
722.0,0.1924
723.0,0.1706
724.0,0.1427
725.0,0.1376
726.0,0.1446
727.0,0.154
728.0,0.1361
729.0,0.151
730.0,0.1564
731.0,0.1484
732.0,0.1699
733.0,0.1892
734.0,0.1973
735.0,0.1912
736.0,0.19
737.0,0.1912
738.0,0.2031
739.0,0.1995
740.0,0.2073
741.0,0.2067
742.0,0.2087
743.0,0.2145
744.0,0.215
745.0,0.216
746.0,0.217
747.0,0.2177
748.0,0.2174
749.0,0.215
750.0,0.215
751.0,0.2128
752.0,0.2139
753.0,0.2151
754.0,0.2156
755.0,0.2143
756.0,0.2144
757.0,0.2147
758.0,0.2118
759.0,0.2011
760.0,0.003433
761.0,0.001478
762.0,0.034
763.0,0.006994
764.0,0.01661
765.0,0.03381
766.0,0.0619
767.0,0.1103
768.0,0.1636
769.0,0.1766
770.0,0.1942
771.0,0.2011
772.0,0.2033
773.0,0.2052
774.0,0.2046
775.0,0.2033
776.0,0.2059
777.0,0.2033
778.0,0.202
779.0,0.2022
780.0,0.2012
781.0,0.2014
782.0,0.2028
783.0,0.1994
784.0,0.2006
785.0,0.1987
786.0,0.2005
787.0,0.1922
788.0,0.1878
789.0,0.1879
790.0,0.1772
791.0,0.1846
792.0,0.1842
793.0,0.1807
794.0,0.1895
795.0,0.191
796.0,0.1768
797.0,0.176
798.0,0.1897
799.0,0.1871
800.0,0.1819
801.0,0.1791
802.0,0.1783
803.0,0.1757
804.0,0.177
805.0,0.179
806.0,0.1886
807.0,0.1855
808.0,0.1858
809.0,0.1788
810.0,0.1757
811.0,0.1729
812.0,0.1606
813.0,0.1561
814.0,0.1244
815.0,0.1251
816.0,0.114
817.0,0.1163
818.0,0.1091
819.0,0.1325
820.0,0.1216
821.0,0.16
822.0,0.1524
823.0,0.07874
824.0,0.1408
825.0,0.1578
826.0,0.1453
827.0,0.1597
828.0,0.1178
829.0,0.1458
830.0,0.1431
831.0,0.1432
832.0,0.1356
833.0,0.1519
834.0,0.142
835.0,0.1696
836.0,0.1521
837.0,0.1698
838.0,0.1598
839.0,0.1668
840.0,0.1718
841.0,0.1672
842.0,0.1709
843.0,0.1744
844.0,0.1702
845.0,0.1783
846.0,0.1782
847.0,0.1759
848.0,0.1733
849.0,0.1684
850.0,0.1614
851.0,0.1692
852.0,0.1689
853.0,0.1639
854.0,0.1404
855.0,0.1558
856.0,0.1696
857.0,0.1745
858.0,0.1727
859.0,0.1736
860.0,0.1744
861.0,0.1733
862.0,0.1763
863.0,0.1804
864.0,0.1715
865.0,0.1702
866.0,0.153
867.0,0.1597
868.0,0.1739
869.0,0.1704
870.0,0.1753
871.0,0.1729
872.0,0.1723
873.0,0.172
874.0,0.17
875.0,0.1665
876.0,0.1681
877.0,0.1699
878.0,0.1715
879.0,0.1689
880.0,0.1653
881.0,0.1621
882.0,0.1652
883.0,0.1666
884.0,0.1655
885.0,0.1667
886.0,0.1563
887.0,0.16
888.0,0.1613
889.0,0.1653
890.0,0.161
891.0,0.1622
892.0,0.1539
893.0,0.1461
894.0,0.1335
895.0,0.1174
896.0,0.1085
897.0,0.08442
898.0,0.09571
899.0,0.06357
900.0,0.1038
901.0,0.06672
902.0,0.08961
903.0,0.08607
904.0,0.1317
905.0,0.1246
906.0,0.1137
907.0,0.07691
908.0,0.08226
909.0,0.09376
910.0,0.07317
911.0,0.0871
912.0,0.08993
913.0,0.07374
914.0,0.07543
915.0,0.08016
916.0,0.06696
917.0,0.09457
918.0,0.06756
919.0,0.1
920.0,0.1106
921.0,0.1134
922.0,0.09401
923.0,0.1108
924.0,0.0932
925.0,0.09183
926.0,0.09101
927.0,0.1089
928.0,0.05917
929.0,0.04923
930.0,0.03067
931.0,0.02826
932.0,0.01444
933.0,0.009775
934.0,0.00243
935.0,0.0113
936.0,0.004749
937.0,0.004844
938.0,0.006635
939.0,0.02715
940.0,0.03804
941.0,0.0225
942.0,0.02859
943.0,0.01463
944.0,0.01983
945.0,0.0246
946.0,0.007417
947.0,0.02319
948.0,0.01664
949.0,0.03752
950.0,0.004149
951.0,0.03686
952.0,0.01345
953.0,0.02145
954.0,0.03137
955.0,0.02245
956.0,0.02955
957.0,0.0134
958.0,0.04633
959.0,0.02893
960.0,0.03268
961.0,0.04299
962.0,0.04071
963.0,0.05306
964.0,0.04702
965.0,0.05178
966.0,0.05213
967.0,0.05066
968.0,0.0959
969.0,0.09461
970.0,0.08525
971.0,0.1104
972.0,0.1021
973.0,0.07633
974.0,0.07224
975.0,0.07794
976.0,0.06678
977.0,0.09236
978.0,0.08084
979.0,0.08767
980.0,0.08121
981.0,0.11
982.0,0.1006
983.0,0.09414
984.0,0.1201
985.0,0.09953
986.0,0.1266
987.0,0.1205
988.0,0.1209
989.0,0.1293
990.0,0.1196
991.0,0.1292
992.0,0.1304
993.0,0.1235
994.0,0.131
995.0,0.1317
996.0,0.1302
997.0,0.1308
998.0,0.1299
999.0,0.1297
1000.0,0.1275
1001.0,0.1305
1002.0,0.1215
1003.0,0.1279
1004.0,0.1233
1005.0,0.1207
1006.0,0.1246
1007.0,0.1276
1008.0,0.1261
1009.0,0.1243
1010.0,0.1233
1011.0,0.1271
1012.0,0.1251
1013.0,0.1271
1014.0,0.1262
1015.0,0.1253
1016.0,0.1246
1017.0,0.1246
1018.0,0.1249
1019.0,0.1201
1020.0,0.1239
1021.0,0.1241
1022.0,0.1224
1023.0,0.1236
1024.0,0.1199
1025.0,0.1242
1026.0,0.1231
1027.0,0.1229
1028.0,0.1225
1029.0,0.1208
1030.0,0.1224
1031.0,0.1216
1032.0,0.1215
1033.0,0.1196
1034.0,0.1197
1035.0,0.1201
1036.0,0.1204
1037.0,0.1186
1038.0,0.119
1039.0,0.1188
1040.0,0.1183
1041.0,0.1186
1042.0,0.1177
1043.0,0.1172
1044.0,0.1175
1045.0,0.1158
1046.0,0.1144
1047.0,0.1152
1048.0,0.1157
1049.0,0.1151
1050.0,0.1144
1051.0,0.114
1052.0,0.1133
1053.0,0.1121
1054.0,0.1121
1055.0,0.1118
1056.0,0.111
1057.0,0.1104
1058.0,0.1074
1059.0,0.1072
1060.0,0.1068
1061.0,0.1065
1062.0,0.1067
1063.0,0.1054
1064.0,0.1068
1065.0,0.1052
1066.0,0.1037
1067.0,0.1049
1068.0,0.102
1069.0,0.09938
1070.0,0.1023
1071.0,0.1056
1072.0,0.1031
1073.0,0.1018
1074.0,0.1065
1075.0,0.09707
1076.0,0.1062
1077.0,0.102
1078.0,0.09873
1079.0,0.1055
1080.0,0.1002
1081.0,0.0948
1082.0,0.1001
1083.0,0.1017
1084.0,0.09363
1085.0,0.1008
1086.0,0.08631
1087.0,0.0928
1088.0,0.1009
1089.0,0.09282
1090.0,0.08907
1091.0,0.09934
1092.0,0.09972
1093.0,0.07358
1094.0,0.08982
1095.0,0.07649
1096.0,0.07057
1097.0,0.09748
1098.0,0.06757
1099.0,0.07179
1100.0,0.06309
1101.0,0.06566
1102.0,0.05968
1103.0,0.05699
1104.0,0.05755
1105.0,0.06899
1106.0,0.03837
1107.0,0.06318
1108.0,0.0448
1109.0,0.04551
1110.0,0.05978
1111.0,0.02886
1112.0,0.04559
1113.0,0.01921
1114.0,0.02146
1115.0,0.01674
1116.0,0.009511
1117.0,0.001381
1118.0,0.01086
1119.0,0.00302
1120.0,0.003409
1121.0,0.005376
1122.0,0.001013
1123.0,0.003115
1124.0,0.002604
1125.0,0.003954
1126.0,0.0003789
1127.0,0.004556
1128.0,0.00136
1129.0,0.001512
1130.0,0.0009732
1131.0,0.01453
1132.0,0.009986
1133.0,0.003547
1134.0,0.0002867
1135.0,0.0001401
1136.0,0.002245
1137.0,0.01318
1138.0,0.008365
1139.0,0.02133
1140.0,0.01422
1141.0,0.008103
1142.0,0.01062
1143.0,0.01942
1144.0,0.00351
1145.0,0.003315
1146.0,0.003563
1147.0,0.0004052
1148.0,0.01576
1149.0,0.01034
1150.0,0.004654
1151.0,0.008366
1152.0,0.0129
1153.0,0.01494
1154.0,0.003748
1155.0,0.02225
1156.0,0.01803
1157.0,0.02562
1158.0,0.0252
1159.0,0.02874
1160.0,0.02396
1161.0,0.03596
1162.0,0.03524
1163.0,0.06166
1164.0,0.04798
1165.0,0.04063
1166.0,0.04459
1167.0,0.05083
1168.0,0.05081
1169.0,0.05297
1170.0,0.06214
1171.0,0.06058
1172.0,0.06517
1173.0,0.06208
1174.0,0.03508
1175.0,0.06409
1176.0,0.07742
1177.0,0.06946
1178.0,0.04461
1179.0,0.07782
1180.0,0.06203
1181.0,0.06419
1182.0,0.03523
1183.0,0.06459
1184.0,0.05724
1185.0,0.05233
1186.0,0.07207
1187.0,0.06522
1188.0,0.03388
1189.0,0.06036
1190.0,0.07149
1191.0,0.06087
1192.0,0.07321
1193.0,0.06765
1194.0,0.07142
1195.0,0.0628
1196.0,0.05809
1197.0,0.07299
1198.0,0.06541
1199.0,0.04628
1200.0,0.06703
1201.0,0.06085
1202.0,0.0642
1203.0,0.06095
1204.0,0.05
1205.0,0.06797
1206.0,0.07959
1207.0,0.06243
1208.0,0.06434
1209.0,0.06576
1210.0,0.07088
1211.0,0.06448
1212.0,0.05767
1213.0,0.07388
1214.0,0.06098
1215.0,0.0596
1216.0,0.07462
1217.0,0.07087
1218.0,0.0738
1219.0,0.07155
1220.0,0.07408
1221.0,0.07645
1222.0,0.07352
1223.0,0.07192
1224.0,0.06907
1225.0,0.07525
1226.0,0.07757
1227.0,0.06592
1228.0,0.07886
1229.0,0.07764
1230.0,0.07527
1231.0,0.0807
1232.0,0.08009
1233.0,0.0729
1234.0,0.08179
1235.0,0.08045
1236.0,0.08169
1237.0,0.07891
1238.0,0.08144
1239.0,0.08035
1240.0,0.08093
1241.0,0.0792
1242.0,0.08022
1243.0,0.07965
1244.0,0.07978
1245.0,0.08037
1246.0,0.07997
1247.0,0.07925
1248.0,0.07851
1249.0,0.07937
1250.0,0.07846
1251.0,0.07658
1252.0,0.0777
1253.0,0.07509
1254.0,0.0729
1255.0,0.07711
1256.0,0.07132
1257.0,0.0702
1258.0,0.07437
1259.0,0.06626
1260.0,0.06726
1261.0,0.05721
1262.0,0.05242
1263.0,0.05238
1264.0,0.04197
1265.0,0.05215
1266.0,0.04628
1267.0,0.04979
1268.0,0.04303
1269.0,0.01014
1270.0,0.04853
1271.0,0.05798
1272.0,0.05864
1273.0,0.05732
1274.0,0.0585
1275.0,0.06042
1276.0,0.06229
1277.0,0.0645
1278.0,0.06815
1279.0,0.06768
1280.0,0.06679
1281.0,0.06498
1282.0,0.06466
1283.0,0.0692
1284.0,0.07053
1285.0,0.07137
1286.0,0.07342
1287.0,0.07024
1288.0,0.07098
1289.0,0.0647
1290.0,0.07046
1291.0,0.07221
1292.0,0.06101
1293.0,0.0693
1294.0,0.06856
1295.0,0.06557
1296.0,0.05881
1297.0,0.05305
1298.0,0.06299
1299.0,0.06989
1300.0,0.04973
1301.0,0.05248
1302.0,0.06323
1303.0,0.04968
1304.0,0.03474
1305.0,0.06137
1306.0,0.06002
1307.0,0.03811
1308.0,0.05107
1309.0,0.05777
1310.0,0.03639
1311.0,0.04702
1312.0,0.04517
1313.0,0.04153
1314.0,0.03407
1315.0,0.03231
1316.0,0.04475
1317.0,0.04093
1318.0,0.04807
1319.0,0.0285
1320.0,0.02888
1321.0,0.03717
1322.0,0.03568
1323.0,0.02008
1324.0,0.02844
1325.0,0.0424
1326.0,0.03222
1327.0,0.02932
1328.0,0.02262
1329.0,0.01183
1330.0,0.0185
1331.0,0.006632
1332.0,0.007695
1333.0,0.01157
1334.0,0.01337
1335.0,0.01898
1336.0,0.01206
1337.0,0.01051
1338.0,0.01095
1339.0,0.01126
1340.0,0.01232
1341.0,0.008689
1342.0,0.009688
1343.0,0.003186
1344.0,0.002175
1345.0,0.002647
1346.0,0.0004367
1347.0,0.0003451
1348.0,5.995e-06
1349.0,2.445e-05
1350.0,2.732e-05
1351.0,3.916e-06
1352.0,9.555e-07
1353.0,4.854e-08
1354.0,1.673e-07
1355.0,1.343e-09
1356.0,2.351e-08
1357.0,3.572e-08
1358.0,1.576e-09
1359.0,1.986e-10
1360.0,7.177e-10
1361.0,8.028e-13
1362.0,2.196e-15
1363.0,9.65e-10
1364.0,3.984e-10
1365.0,7.667e-16
1366.0,4.182e-09
1367.0,1.707e-09
1368.0,5.92e-18
1369.0,1.468e-10
1370.0,7.23e-11
1371.0,4.098e-12
1372.0,9.258e-10
1373.0,1.865e-08
1374.0,8.655e-08
1375.0,1.569e-07
1376.0,1.413e-07
1377.0,6.45e-08
1378.0,6.296e-07
1379.0,2.699e-08
1380.0,3.862e-08
1381.0,1.006e-09
1382.0,8.114e-10
1383.0,1.213e-11
1384.0,1.591e-10
1385.0,7.606e-10
1386.0,7.154e-10
1387.0,8.653e-08
1388.0,1.703e-09
1389.0,2.924e-07
1390.0,2.509e-07
1391.0,1.669e-07
1392.0,1.082e-08
1393.0,5.743e-08
1394.0,2.951e-08
1395.0,2.163e-10
1396.0,1.045e-12
1397.0,2.258e-08
1398.0,6.673e-07
1399.0,4.223e-07
1400.0,4.469e-13
1401.0,1.854e-12
1402.0,1.308e-06
1403.0,1.53e-06
1404.0,4.543e-07
1405.0,1.024e-10
1406.0,1.154e-06
1407.0,1.104e-07
1408.0,9.412e-07
1409.0,3.119e-07
1410.0,2.53e-07
