interpolation:linear
wavelength,value
280.0,6.995999999999999e-23
280.5,2.342e-21
281.0,1.2660000000000001e-20
281.5,4.098e-19
282.0,5.112e-19
282.5,1.214e-18
283.0,3.779e-18
283.5,6.142e-18
284.0,1.009e-16
284.5,2.959e-16
285.0,6.127e-16
285.5,2.801e-15
286.0,1.113e-14
286.5,4.915e-14
287.0,1.402e-13
287.5,5.385e-13
288.0,1.833e-12
288.5,5.274e-12
289.0,1.366e-11
289.5,4.058e-11
290.0,1.12e-10
290.5,2.28e-10
291.0,4.893e-10
291.5,1.407e-09
292.0,2.869e-09
292.5,3.997e-09
293.0,8.5e-09
293.5,2.048e-08
294.0,3.192e-08
294.5,4.068e-08
295.0,6.851e-08
295.5,1.166e-07
296.0,2.201e-07
296.5,3.008e-07
297.0,3.986e-07
297.5,1.034e-06
298.0,1.579e-06
298.5,1.547e-06
299.0,3.317e-06
299.5,5.227e-06
300.0,5.566e-06
300.5,7.785e-06
301.0,1.327e-05
301.5,1.993e-05
302.0,1.65e-05
302.5,3.174e-05
303.0,5.614e-05
303.5,7.064e-05
304.0,6.78e-05
304.5,0.0001074
305.0,0.0001782
305.5,0.0002167
306.0,0.0002147
306.5,0.0002783
307.0,0.0004528
307.5,0.00066
308.0,0.0007074
308.5,0.0008751
309.0,0.001019
309.5,0.001401
310.0,0.001531
310.5,0.002586
311.0,0.003477
311.5,0.003457
312.0,0.004014
312.5,0.005392
313.0,0.006158
313.5,0.005696
314.0,0.00802
314.5,0.008326
315.0,0.01125
315.5,0.008712
316.0,0.008647
316.5,0.01387
317.0,0.01717
317.5,0.01731
318.0,0.01456
318.5,0.02089
319.0,0.02666
319.5,0.01932
320.0,0.02292
320.5,0.03325
321.0,0.03383
321.5,0.03286
322.0,0.03035
322.5,0.02659
323.0,0.02906
323.5,0.0403
324.0,0.04781
324.5,0.04653
325.0,0.03714
325.5,0.05151
326.0,0.0667
326.5,0.07042
327.0,0.06882
327.5,0.06482
328.0,0.05373
328.5,0.06156
329.0,0.07884
329.5,0.09134
330.0,0.09063
330.5,0.06885
331.0,0.06891
331.5,0.07281
332.0,0.08318
332.5,0.08439
333.0,0.08292
333.5,0.07202
334.0,0.07329
334.5,0.08862
335.0,0.08557
335.5,0.1011
336.0,0.06997
336.5,0.07994
337.0,0.06432
337.5,0.07943
338.0,0.08061
338.5,0.09458
339.0,0.09387
339.5,0.09018
340.0,0.1044
340.5,0.09448
341.0,0.09335
341.5,0.08613
342.0,0.1031
342.5,0.09663
343.0,0.106
343.5,0.09962
344.0,0.07269
344.5,0.07416
345.0,0.09871
345.5,0.1011
346.0,0.08608
346.5,0.09762
347.0,0.1046
347.5,0.08452
348.0,0.09669
348.5,0.09686
349.0,0.08999
349.5,0.08912
350.0,0.1103
350.5,0.1164
351.0,0.1039
351.5,0.1006
352.0,0.1084
352.5,0.08479
353.0,0.107
353.5,0.1146
354.0,0.1191
354.5,0.1208
355.0,0.1204
355.5,0.1089
356.0,0.114
356.5,0.09742
357.0,0.08051
357.5,0.09862
358.0,0.07822
358.5,0.06688
359.0,0.09354
359.5,0.1191
360.0,0.1264
360.5,0.1011
361.0,0.09229
361.5,0.1064
362.0,0.09216
362.5,0.1277
363.0,0.1148
363.5,0.1059
364.0,0.1296
364.5,0.1108
365.0,0.113
365.5,0.1419
366.0,0.1505
366.5,0.1416
367.0,0.138
367.5,0.1433
368.0,0.1255
368.5,0.1267
369.0,0.1369
369.5,0.1461
370.0,0.1559
370.5,0.1211
371.0,0.1295
371.5,0.1621
372.0,0.1077
372.5,0.1292
373.0,0.1316
373.5,0.08567
374.0,0.1246
374.5,0.1033
375.0,0.1005
375.5,0.1501
376.0,0.1245
376.5,0.1291
377.0,0.1368
377.5,0.1602
378.0,0.1737
378.5,0.1643
379.0,0.1357
379.5,0.124
380.0,0.129
380.5,0.1564
381.0,0.1569
381.5,0.1245
382.0,0.1107
382.5,0.09452
383.0,0.08761
383.5,0.08447
384.0,0.09326
384.5,0.1373
385.0,0.1363
385.5,0.1271
386.0,0.1089
386.5,0.1433
387.0,0.1191
387.5,0.1339
388.0,0.1237
388.5,0.1225
389.0,0.1323
389.5,0.1604
390.0,0.1611
390.5,0.1484
391.0,0.1749
391.5,0.1785
392.0,0.1505
392.5,0.1349
393.0,0.07512
393.5,0.05466
394.0,0.1113
394.5,0.1417
395.0,0.173
395.5,0.1759
396.0,0.1526
396.5,0.08935
397.0,0.06713
397.5,0.1366
398.0,0.1914
398.5,0.198
399.0,0.2148
399.5,0.2143
400.0,0.2225
401.0,0.2232
402.0,0.236
403.0,0.2247
404.0,0.2216
405.0,0.2219
406.0,0.2188
407.0,0.2158
408.0,0.2244
409.0,0.2406
410.0,0.2106
411.0,0.2286
412.0,0.2461
413.0,0.2403
414.0,0.2437
415.0,0.2449
416.0,0.2497
417.0,0.2439
418.0,0.2398
419.0,0.2434
420.0,0.2427
421.0,0.2543
422.0,0.2421
423.0,0.2368
424.0,0.2507
425.0,0.2507
426.0,0.2449
427.0,0.2406
428.0,0.2347
429.0,0.223
430.0,0.1955
431.0,0.1938
432.0,0.2508
433.0,0.2526
434.0,0.2347
435.0,0.2454
436.0,0.2772
437.0,0.2741
438.0,0.25
439.0,0.2582
440.0,0.2669
441.0,0.2771
442.0,0.2975
443.0,0.2896
444.0,0.2966
445.0,0.2903
446.0,0.278
447.0,0.3013
448.0,0.3058
449.0,0.3079
450.0,0.317
451.0,0.3292
452.0,0.3176
453.0,0.2992
454.0,0.313
455.0,0.3151
456.0,0.3229
457.0,0.3284
458.0,0.3168
459.0,0.3154
460.0,0.3161
461.0,0.3236
462.0,0.3268
463.0,0.3247
464.0,0.3203
465.0,0.3173
466.0,0.3211
467.0,0.3151
468.0,0.3189
469.0,0.3206
470.0,0.3103
471.0,0.3102
472.0,0.3269
473.0,0.3228
474.0,0.3227
475.0,0.3248
476.0,0.3142
477.0,0.3144
478.0,0.3234
479.0,0.3219
480.0,0.323
481.0,0.3298
482.0,0.3323
483.0,0.3293
484.0,0.3232
485.0,0.3087
486.0,0.2706
487.0,0.2842
488.0,0.3118
489.0,0.3126
490.0,0.3294
491.0,0.3242
492.0,0.3063
493.0,0.3165
494.0,0.3199
495.0,0.3228
496.0,0.3249
497.0,0.3299
498.0,0.3144
499.0,0.318
500.0,0.3082
501.0,0.3019
502.0,0.2965
503.0,0.3074
504.0,0.2962
505.0,0.3095
506.0,0.3194
507.0,0.3042
508.0,0.2958
509.0,0.305
510.0,0.3041
511.0,0.313
512.0,0.3168
513.0,0.3
514.0,0.2982
515.0,0.2952
516.0,0.2943
517.0,0.2617
518.0,0.2751
519.0,0.2885
520.0,0.2988
521.0,0.3015
522.0,0.3014
523.0,0.2957
524.0,0.3056
525.0,0.3082
526.0,0.2941
527.0,0.2764
528.0,0.2917
529.0,0.3069
530.0,0.3021
531.0,0.3062
532.0,0.2955
533.0,0.2869
534.0,0.2957
535.0,0.3026
536.0,0.3058
537.0,0.2941
538.0,0.2995
539.0,0.2969
540.0,0.2845
541.0,0.2852
542.0,0.2936
543.0,0.2913
544.0,0.2954
545.0,0.2947
546.0,0.2952
547.0,0.2958
548.0,0.2927
549.0,0.2938
550.0,0.2974
551.0,0.2939
552.0,0.296
553.0,0.2905
554.0,0.2973
555.0,0.2977
556.0,0.2936
557.0,0.2842
558.0,0.2815
559.0,0.2756
560.0,0.2786
561.0,0.2816
562.0,0.2789
563.0,0.2857
564.0,0.2773
565.0,0.2743
566.0,0.2698
567.0,0.2741
568.0,0.2698
569.0,0.2599
570.0,0.2602
571.0,0.2595
572.0,0.2634
573.0,0.2657
574.0,0.2643
575.0,0.2585
576.0,0.2562
577.0,0.2594
578.0,0.2565
579.0,0.2592
580.0,0.2668
581.0,0.2702
582.0,0.2771
583.0,0.2792
584.0,0.2827
585.0,0.2763
586.0,0.2708
587.0,0.2756
588.0,0.2646
589.0,0.2261
590.0,0.237
591.0,0.2559
592.0,0.2497
593.0,0.2572
594.0,0.2539
595.0,0.2442
596.0,0.261
597.0,0.2562
598.0,0.2577
599.0,0.2588
600.0,0.2609
601.0,0.2601
602.0,0.2586
603.0,0.2636
604.0,0.2684
605.0,0.2675
606.0,0.2671
607.0,0.2706
608.0,0.2684
609.0,0.2696
610.0,0.2684
611.0,0.2704
612.0,0.2701
613.0,0.2672
614.0,0.2642
615.0,0.2707
616.0,0.2623
617.0,0.2622
618.0,0.2727
619.0,0.2702
620.0,0.272
621.0,0.2717
622.0,0.2681
623.0,0.2637
624.0,0.2596
625.0,0.2589
626.0,0.2625
627.0,0.2637
628.0,0.2259
629.0,0.2502
630.0,0.2437
631.0,0.2562
632.0,0.2545
633.0,0.2651
634.0,0.2649
635.0,0.2702
636.0,0.268
637.0,0.2735
638.0,0.2778
639.0,0.2755
640.0,0.2739
641.0,0.2745
642.0,0.2742
643.0,0.278
644.0,0.2781
645.0,0.278
646.0,0.269
647.0,0.2599
648.0,0.2609
649.0,0.2547
650.0,0.2636
651.0,0.2763
652.0,0.2577
653.0,0.2732
654.0,0.2706
655.0,0.2569
656.0,0.2303
657.0,0.237
658.0,0.2681
659.0,0.271
660.0,0.2728
661.0,0.2752
662.0,0.2745
663.0,0.2695
664.0,0.2747
665.0,0.2765
666.0,0.2774
667.0,0.2779
668.0,0.2789
669.0,0.2838
670.0,0.2829
671.0,0.2833
672.0,0.2812
673.0,0.2859
674.0,0.2852
675.0,0.283
676.0,0.2852
677.0,0.2827
678.0,0.2838
679.0,0.2796
680.0,0.282
681.0,0.2803
682.0,0.28
683.0,0.2795
684.0,0.2781
685.0,0.2809
686.0,0.2788
687.0,0.1058
688.0,0.1546
689.0,0.1563
690.0,0.1763
691.0,0.2009
692.0,0.2216
693.0,0.2193
694.0,0.2205
695.0,0.2405
696.0,0.2417
697.0,0.2686
698.0,0.2642
699.0,0.2493
700.0,0.2458
701.0,0.2395
702.0,0.2446
703.0,0.2464
704.0,0.2594
705.0,0.2596
706.0,0.2613
707.0,0.2624
708.0,0.2627
709.0,0.2668
710.0,0.2647
711.0,0.2657
712.0,0.2668
713.0,0.2623
714.0,0.2639
715.0,0.2519
716.0,0.2512
717.0,0.1876
718.0,0.1706
719.0,0.154
720.0,0.158
721.0,0.1907
722.0,0.2364
723.0,0.2114
724.0,0.1793
725.0,0.1733
726.0,0.182
727.0,0.1921
728.0,0.1716
729.0,0.1881
730.0,0.1959
731.0,0.186
732.0,0.2101
733.0,0.2321
734.0,0.2412
735.0,0.2343
736.0,0.2332
737.0,0.2344
738.0,0.2467
739.0,0.2422
740.0,0.2511
741.0,0.2501
742.0,0.252
743.0,0.2589
744.0,0.2592
745.0,0.2602
746.0,0.2614
747.0,0.2622
748.0,0.2617
749.0,0.2589
750.0,0.2588
751.0,0.2562
752.0,0.2575
753.0,0.2589
754.0,0.2595
755.0,0.2579
756.0,0.258
757.0,0.2583
758.0,0.2549
759.0,0.2437
760.0,0.005076
761.0,0.001864
762.0,0.05124
763.0,0.01117
764.0,0.02645
765.0,0.05102
766.0,0.08703
767.0,0.1447
768.0,0.2034
769.0,0.217
770.0,0.2354
771.0,0.2424
772.0,0.2445
773.0,0.2467
774.0,0.2458
775.0,0.2442
776.0,0.2473
777.0,0.2441
778.0,0.2426
779.0,0.2428
780.0,0.2416
781.0,0.2419
782.0,0.2435
783.0,0.2394
784.0,0.2408
785.0,0.2386
786.0,0.2408
787.0,0.2321
788.0,0.2272
789.0,0.2272
790.0,0.2156
791.0,0.2232
792.0,0.2225
793.0,0.2183
794.0,0.2277
795.0,0.2299
796.0,0.2147
797.0,0.2141
798.0,0.2286
799.0,0.2258
800.0,0.22
801.0,0.2172
802.0,0.2163
803.0,0.2135
804.0,0.2148
805.0,0.2166
806.0,0.227
807.0,0.2234
808.0,0.2238
809.0,0.2163
810.0,0.2128
811.0,0.2098
812.0,0.1971
813.0,0.1916
814.0,0.1552
815.0,0.1556
816.0,0.1426
817.0,0.1456
818.0,0.1372
819.0,0.1644
820.0,0.1513
821.0,0.1947
822.0,0.1862
823.0,0.1012
824.0,0.1737
825.0,0.1918
826.0,0.1782
827.0,0.1943
828.0,0.1473
829.0,0.1785
830.0,0.1751
831.0,0.1755
832.0,0.1669
833.0,0.1853
834.0,0.1739
835.0,0.2043
836.0,0.1859
837.0,0.2048
838.0,0.1937
839.0,0.2017
840.0,0.2074
841.0,0.2024
842.0,0.206
843.0,0.2093
844.0,0.2047
845.0,0.2139
846.0,0.2136
847.0,0.2106
848.0,0.2078
849.0,0.2019
850.0,0.1935
851.0,0.2033
852.0,0.2027
853.0,0.1963
854.0,0.1685
855.0,0.1866
856.0,0.2033
857.0,0.2088
858.0,0.2068
859.0,0.2077
860.0,0.2085
861.0,0.2073
862.0,0.2108
863.0,0.2157
864.0,0.2051
865.0,0.2034
866.0,0.1829
867.0,0.1909
868.0,0.2078
869.0,0.2036
870.0,0.2094
871.0,0.2065
872.0,0.2059
873.0,0.2055
874.0,0.2031
875.0,0.1989
876.0,0.2009
877.0,0.203
878.0,0.205
879.0,0.2019
880.0,0.1976
881.0,0.1939
882.0,0.1977
883.0,0.1992
884.0,0.1979
885.0,0.1994
886.0,0.1875
887.0,0.1915
888.0,0.1933
889.0,0.1976
890.0,0.1931
891.0,0.1942
892.0,0.1851
893.0,0.1762
894.0,0.1627
895.0,0.1451
896.0,0.1346
897.0,0.1066
898.0,0.1202
899.0,0.08176
900.0,0.1291
901.0,0.0857
902.0,0.1129
903.0,0.1093
904.0,0.1609
905.0,0.1527
906.0,0.1401
907.0,0.0982
908.0,0.1038
909.0,0.1175
910.0,0.09356
911.0,0.1088
912.0,0.1131
913.0,0.0944
914.0,0.09595
915.0,0.1025
916.0,0.08576
917.0,0.1189
918.0,0.08684
919.0,0.125
920.0,0.1356
921.0,0.1398
922.0,0.1171
923.0,0.1362
924.0,0.1171
925.0,0.1153
926.0,0.1147
927.0,0.1359
928.0,0.07781
929.0,0.06576
930.0,0.04308
931.0,0.04023
932.0,0.02192
933.0,0.01531
934.0,0.004278
935.0,0.01744
936.0,0.007796
937.0,0.007899
938.0,0.01068
939.0,0.03873
940.0,0.05263
941.0,0.03259
942.0,0.04086
943.0,0.0219
944.0,0.02829
945.0,0.03522
946.0,0.0117
947.0,0.03357
948.0,0.02415
949.0,0.0522
950.0,0.00673
951.0,0.05165
952.0,0.02004
953.0,0.03089
954.0,0.04394
955.0,0.03204
956.0,0.03934
957.0,0.01989
958.0,0.06153
959.0,0.04008
960.0,0.0451
961.0,0.05767
962.0,0.05449
963.0,0.06939
964.0,0.06182
965.0,0.06829
966.0,0.06827
967.0,0.06672
968.0,0.1183
969.0,0.1182
970.0,0.1067
971.0,0.1352
972.0,0.126
973.0,0.09673
974.0,0.09136
975.0,0.09823
976.0,0.08584
977.0,0.114
978.0,0.1015
979.0,0.1095
980.0,0.1016
981.0,0.1346
982.0,0.124
983.0,0.1165
984.0,0.1453
985.0,0.1229
986.0,0.1522
987.0,0.1453
988.0,0.1455
989.0,0.1547
990.0,0.1443
991.0,0.1546
992.0,0.156
993.0,0.1483
994.0,0.1565
995.0,0.1571
996.0,0.1556
997.0,0.1562
998.0,0.1552
999.0,0.1548
1000.0,0.1525
1001.0,0.1558
1002.0,0.1464
1003.0,0.1528
1004.0,0.1477
1005.0,0.1441
1006.0,0.1489
1007.0,0.1524
1008.0,0.1508
1009.0,0.149
1010.0,0.1478
1011.0,0.1518
1012.0,0.1496
1013.0,0.1517
1014.0,0.1507
1015.0,0.1495
1016.0,0.1487
1017.0,0.1489
1018.0,0.149
1019.0,0.1438
1020.0,0.1479
1021.0,0.148
1022.0,0.1462
1023.0,0.1476
1024.0,0.1437
1025.0,0.1482
1026.0,0.147
1027.0,0.1468
1028.0,0.1463
1029.0,0.1444
1030.0,0.1461
1031.0,0.1452
1032.0,0.145
1033.0,0.1428
1034.0,0.1429
1035.0,0.1433
1036.0,0.1438
1037.0,0.1416
1038.0,0.1421
1039.0,0.1419
1040.0,0.1413
1041.0,0.1417
1042.0,0.1407
1043.0,0.1401
1044.0,0.1405
1045.0,0.1384
1046.0,0.1368
1047.0,0.1379
1048.0,0.1385
1049.0,0.1378
1050.0,0.137
1051.0,0.1366
1052.0,0.1358
1053.0,0.1345
1054.0,0.1345
1055.0,0.1343
1056.0,0.1335
1057.0,0.1328
1058.0,0.1292
1059.0,0.129
1060.0,0.1287
1061.0,0.1283
1062.0,0.1287
1063.0,0.1272
1064.0,0.1288
1065.0,0.1271
1066.0,0.1252
1067.0,0.1266
1068.0,0.1233
1069.0,0.12
1070.0,0.1236
1071.0,0.1272
1072.0,0.1244
1073.0,0.1229
1074.0,0.128
1075.0,0.1173
1076.0,0.1277
1077.0,0.123
1078.0,0.1193
1079.0,0.1265
1080.0,0.121
1081.0,0.1148
1082.0,0.1205
1083.0,0.1221
1084.0,0.1137
1085.0,0.1216
1086.0,0.1053
1087.0,0.1123
1088.0,0.1213
1089.0,0.1128
1090.0,0.1085
1091.0,0.1197
1092.0,0.1201
1093.0,0.09073
1094.0,0.1084
1095.0,0.09457
1096.0,0.08777
1097.0,0.1174
1098.0,0.08451
1099.0,0.0896
1100.0,0.0795
1101.0,0.08217
1102.0,0.07542
1103.0,0.07257
1104.0,0.07308
1105.0,0.0865
1106.0,0.05078
1107.0,0.0795
1108.0,0.05816
1109.0,0.05925
1110.0,0.07617
1111.0,0.03937
1112.0,0.05929
1113.0,0.027
1114.0,0.03029
1115.0,0.02404
1116.0,0.01458
1117.0,0.002434
1118.0,0.01659
1119.0,0.005132
1120.0,0.005947
1121.0,0.009157
1122.0,0.001991
1123.0,0.005451
1124.0,0.004562
1125.0,0.006701
1126.0,0.0007874
1127.0,0.007717
1128.0,0.002597
1129.0,0.00288
1130.0,0.001776
1131.0,0.02222
1132.0,0.01571
1133.0,0.006218
1134.0,0.0005923
1135.0,0.0002808
1136.0,0.004146
1137.0,0.02032
1138.0,0.0133
1139.0,0.03046
1140.0,0.02121
1141.0,0.01281
1142.0,0.01639
1143.0,0.02834
1144.0,0.005801
1145.0,0.005894
1146.0,0.006333
1147.0,0.0008515
1148.0,0.02345
1149.0,0.01597
1150.0,0.007297
1151.0,0.01325
1152.0,0.01956
1153.0,0.0219
1154.0,0.006297
1155.0,0.03172
1156.0,0.02621
1157.0,0.03524
1158.0,0.03466
1159.0,0.03941
1160.0,0.03257
1161.0,0.04721
1162.0,0.04651
1163.0,0.07755
1164.0,0.06137
1165.0,0.05286
1166.0,0.05697
1167.0,0.06446
1168.0,0.06432
1169.0,0.06695
1170.0,0.07752
1171.0,0.07559
1172.0,0.08043
1173.0,0.07746
1174.0,0.04549
1175.0,0.07903
1176.0,0.09386
1177.0,0.08521
1178.0,0.05617
1179.0,0.09447
1180.0,0.07687
1181.0,0.07951
1182.0,0.04561
1183.0,0.07971
1184.0,0.07141
1185.0,0.06594
1186.0,0.0883
1187.0,0.08072
1188.0,0.04443
1189.0,0.07479
1190.0,0.08727
1191.0,0.0759
1192.0,0.08918
1193.0,0.08304
1194.0,0.08722
1195.0,0.07777
1196.0,0.07249
1197.0,0.0889
1198.0,0.07976
1199.0,0.05852
1200.0,0.08211
1201.0,0.07551
1202.0,0.07854
1203.0,0.07544
1204.0,0.06252
1205.0,0.08272
1206.0,0.09589
1207.0,0.07678
1208.0,0.07845
1209.0,0.0803
1210.0,0.08595
1211.0,0.07874
1212.0,0.07198
1213.0,0.08981
1214.0,0.07564
1215.0,0.0739
1216.0,0.09035
1217.0,0.0862
1218.0,0.08942
1219.0,0.08706
1220.0,0.08973
1221.0,0.09202
1222.0,0.08881
1223.0,0.08708
1224.0,0.0843
1225.0,0.09086
1226.0,0.09317
1227.0,0.08057
1228.0,0.09463
1229.0,0.09322
1230.0,0.09062
1231.0,0.09652
1232.0,0.09582
1233.0,0.08808
1234.0,0.09752
1235.0,0.09614
1236.0,0.09744
1237.0,0.09442
1238.0,0.09714
1239.0,0.09585
1240.0,0.09647
1241.0,0.09475
1242.0,0.09566
1243.0,0.09497
1244.0,0.09523
1245.0,0.09588
1246.0,0.09537
1247.0,0.09463
1248.0,0.09392
1249.0,0.09479
1250.0,0.09382
1251.0,0.09181
1252.0,0.09285
1253.0,0.09025
1254.0,0.088
1255.0,0.09228
1256.0,0.08631
1257.0,0.08515
1258.0,0.08942
1259.0,0.08109
1260.0,0.08213
1261.0,0.07151
1262.0,0.06637
1263.0,0.06635
1264.0,0.05488
1265.0,0.06603
1266.0,0.05968
1267.0,0.0634
1268.0,0.05595
1269.0,0.01633
1270.0,0.06211
1271.0,0.07214
1272.0,0.07289
1273.0,0.07145
1274.0,0.07262
1275.0,0.07472
1276.0,0.07666
1277.0,0.07884
1278.0,0.08268
1279.0,0.08196
1280.0,0.08097
1281.0,0.07844
1282.0,0.07751
1283.0,0.08307
1284.0,0.08473
1285.0,0.08564
1286.0,0.08782
1287.0,0.08453
1288.0,0.08519
1289.0,0.07865
1290.0,0.08457
1291.0,0.08648
1292.0,0.0746
1293.0,0.08331
1294.0,0.08247
1295.0,0.07959
1296.0,0.0722
1297.0,0.06573
1298.0,0.07662
1299.0,0.08395
1300.0,0.06164
1301.0,0.06489
1302.0,0.0767
1303.0,0.06155
1304.0,0.04462
1305.0,0.07465
1306.0,0.07343
1307.0,0.04838
1308.0,0.06303
1309.0,0.07114
1310.0,0.04652
1311.0,0.05846
1312.0,0.05611
1313.0,0.05249
1314.0,0.04391
1315.0,0.04185
1316.0,0.05597
1317.0,0.05162
1318.0,0.05972
1319.0,0.03734
1320.0,0.03765
1321.0,0.0474
1322.0,0.04599
1323.0,0.02748
1324.0,0.03709
1325.0,0.05366
1326.0,0.04165
1327.0,0.03831
1328.0,0.03034
1329.0,0.01712
1330.0,0.02556
1331.0,0.01021
1332.0,0.01168
1333.0,0.01722
1334.0,0.01854
1335.0,0.02643
1336.0,0.01758
1337.0,0.01519
1338.0,0.01597
1339.0,0.01642
1340.0,0.01756
1341.0,0.01329
1342.0,0.01458
1343.0,0.005457
1344.0,0.00366
1345.0,0.004709
1346.0,0.0009376
1347.0,0.0007738
1348.0,1.157e-05
1349.0,5.199e-05
1350.0,6.225e-05
1351.0,5.621e-06
1352.0,9.93e-07
1353.0,4.932e-08
1354.0,1.743e-07
1355.0,1.356e-09
1356.0,2.39e-08
1357.0,3.629e-08
1358.0,1.592e-09
1359.0,2.004e-10
1360.0,7.244e-10
1361.0,8.102e-13
1362.0,2.216e-15
1363.0,9.739e-10
1364.0,4.021e-10
1365.0,7.738e-16
1366.0,4.221e-09
1367.0,1.723e-09
1368.0,5.975e-18
1369.0,1.482e-10
1370.0,7.296e-11
1371.0,4.136e-12
1372.0,9.345e-10
1373.0,1.885e-08
1374.0,8.803e-08
1375.0,1.589e-07
1376.0,1.483e-07
1377.0,6.723e-08
1378.0,6.515e-07
1379.0,2.833e-08
1380.0,3.935e-08
1381.0,1.024e-09
1382.0,8.19e-10
1383.0,1.224e-11
1384.0,1.605e-10
1385.0,7.685e-10
1386.0,7.22e-10
1387.0,8.742e-08
1388.0,1.733e-09
1389.0,2.993e-07
1390.0,2.555e-07
1391.0,1.702e-07
1392.0,1.11e-08
1393.0,5.964e-08
1394.0,2.981e-08
1395.0,2.184e-10
1396.0,1.055e-12
1397.0,2.317e-08
1398.0,6.859e-07
1399.0,4.361e-07
1400.0,4.51e-13
1401.0,1.871e-12
1402.0,1.915e-06
1403.0,1.928e-06
1404.0,5.332e-07
1405.0,1.034e-10
1406.0,1.229e-06
1407.0,1.487e-07
1408.0,1.018e-06
1409.0,3.198e-07
1410.0,2.813e-07
1411.0,1.742e-06
1412.0,3.051e-06
