interpolation:linear
wavelength,value
280.0,4.182e-23
280.5,1.411e-21
281.0,7.653e-21
281.5,2.495e-19
282.0,4.855e-19
282.5,1.115e-18
283.0,3.425e-18
283.5,5.555e-18
284.0,9.076e-17
284.5,2.665e-16
285.0,7.929e-16
285.5,3.109e-15
286.0,1.204e-14
286.5,5.133e-14
287.0,1.443e-13
287.5,5.472e-13
288.0,1.677e-12
288.5,4.762e-12
289.0,1.226e-11
289.5,3.634e-11
290.0,1.003e-10
290.5,2.044e-10
291.0,4.397e-10
291.5,1.267e-09
292.0,2.601e-09
292.5,3.615e-09
293.0,7.668e-09
293.5,1.841e-08
294.0,2.87e-08
294.5,3.456e-08
295.0,5.806e-08
295.5,9.786e-08
296.0,1.828e-07
296.5,2.47e-07
297.0,3.242e-07
297.5,8.288e-07
298.0,1.249e-06
298.5,1.211e-06
299.0,2.571e-06
299.5,3.978e-06
300.0,4.193e-06
300.5,5.805e-06
301.0,9.728e-06
301.5,1.44e-05
302.0,1.184e-05
302.5,2.256e-05
303.0,3.887e-05
303.5,4.811e-05
304.0,4.572e-05
304.5,7.068e-05
305.0,0.0001137
305.5,0.0001358
306.0,0.0001336
306.5,0.0001714
307.0,0.0002729
307.5,0.0003904
308.0,0.0004172
308.5,0.0005119
309.0,0.0005411
309.5,0.0007617
310.0,0.0008423
310.5,0.001431
311.0,0.001943
311.5,0.001941
312.0,0.002306
312.5,0.003148
313.0,0.003626
313.5,0.003327
314.0,0.004778
314.5,0.005101
315.0,0.006926
315.5,0.005289
316.0,0.005373
316.5,0.008796
317.0,0.01089
317.5,0.01091
318.0,0.009307
318.5,0.01374
319.0,0.01779
319.5,0.01259
320.0,0.01488
320.5,0.02224
321.0,0.02325
321.5,0.02265
322.0,0.0203
322.5,0.01781
323.0,0.01984
323.5,0.02925
324.0,0.03487
324.5,0.03349
325.0,0.02543
325.5,0.03583
326.0,0.04879
326.5,0.05233
327.0,0.05083
327.5,0.04751
328.0,0.0385
328.5,0.0453
329.0,0.05917
329.5,0.06894
330.0,0.06807
330.5,0.05092
331.0,0.05068
331.5,0.05416
332.0,0.06285
332.5,0.0642
333.0,0.06282
333.5,0.05392
334.0,0.05475
334.5,0.06708
335.0,0.06524
335.5,0.07756
336.0,0.05367
336.5,0.06069
337.0,0.04855
337.5,0.05982
338.0,0.06136
338.5,0.07254
339.0,0.07205
339.5,0.06916
340.0,0.07944
340.5,0.07197
341.0,0.07159
341.5,0.06614
342.0,0.07919
342.5,0.07424
343.0,0.08133
343.5,0.07639
344.0,0.05534
344.5,0.05678
345.0,0.07569
345.5,0.07755
346.0,0.06606
346.5,0.07493
347.0,0.08018
347.5,0.06478
348.0,0.07417
348.5,0.07433
349.0,0.06906
349.5,0.06838
350.0,0.08464
350.5,0.08929
351.0,0.07962
351.5,0.077
352.0,0.08301
352.5,0.06497
353.0,0.08202
353.5,0.08783
354.0,0.09128
354.5,0.09259
355.0,0.09224
355.5,0.08342
356.0,0.08738
356.5,0.07463
357.0,0.06167
357.5,0.07554
358.0,0.05991
358.5,0.05122
359.0,0.07163
359.5,0.09117
360.0,0.09673
360.5,0.0774
361.0,0.07064
361.5,0.08145
362.0,0.07052
362.5,0.09771
363.0,0.08784
363.5,0.08097
364.0,0.09911
364.5,0.08475
365.0,0.08636
365.5,0.1085
366.0,0.115
366.5,0.1082
367.0,0.1054
367.5,0.1095
368.0,0.09586
368.5,0.09678
369.0,0.1046
369.5,0.1116
370.0,0.119
370.5,0.09247
371.0,0.09888
371.5,0.1238
372.0,0.0822
372.5,0.09864
373.0,0.1004
373.5,0.06539
374.0,0.09508
374.5,0.07882
375.0,0.07667
375.5,0.1145
376.0,0.095
376.5,0.0985
377.0,0.1044
377.5,0.1222
378.0,0.1325
378.5,0.1253
379.0,0.1035
379.5,0.09456
380.0,0.09837
380.5,0.1193
381.0,0.1197
381.5,0.09497
382.0,0.08444
382.5,0.07208
383.0,0.0668
383.5,0.0644
384.0,0.07111
384.5,0.1047
385.0,0.1039
385.5,0.09687
386.0,0.08304
386.5,0.1092
387.0,0.09081
387.5,0.1021
388.0,0.09433
388.5,0.09334
389.0,0.1008
389.5,0.1222
390.0,0.1228
390.5,0.1131
391.0,0.1333
391.5,0.136
392.0,0.1147
392.5,0.1028
393.0,0.05726
393.5,0.04167
394.0,0.08486
394.5,0.108
395.0,0.1319
395.5,0.1341
396.0,0.1163
396.5,0.06811
397.0,0.05117
397.5,0.1042
398.0,0.1459
398.5,0.151
399.0,0.1637
399.5,0.1633
400.0,0.1697
401.0,0.1697
402.0,0.1794
403.0,0.1708
404.0,0.1685
405.0,0.1687
406.0,0.1664
407.0,0.1641
408.0,0.1706
409.0,0.1829
410.0,0.1602
411.0,0.1739
412.0,0.1873
413.0,0.1828
414.0,0.1855
415.0,0.1864
416.0,0.1901
417.0,0.1857
418.0,0.1826
419.0,0.1854
420.0,0.1848
421.0,0.1937
422.0,0.1844
423.0,0.1804
424.0,0.191
425.0,0.191
426.0,0.1867
427.0,0.1835
428.0,0.179
429.0,0.1701
430.0,0.1492
431.0,0.1479
432.0,0.1914
433.0,0.1928
434.0,0.1792
435.0,0.1874
436.0,0.2117
437.0,0.2095
438.0,0.1911
439.0,0.1973
440.0,0.2039
441.0,0.2117
442.0,0.2274
443.0,0.2213
444.0,0.2267
445.0,0.222
446.0,0.2127
447.0,0.2307
448.0,0.2341
449.0,0.2358
450.0,0.2428
451.0,0.2522
452.0,0.2434
453.0,0.2293
454.0,0.24
455.0,0.2416
456.0,0.2476
457.0,0.2519
458.0,0.2429
459.0,0.2418
460.0,0.2423
461.0,0.2481
462.0,0.2506
463.0,0.249
464.0,0.2459
465.0,0.2437
466.0,0.2468
467.0,0.2421
468.0,0.245
469.0,0.2463
470.0,0.2384
471.0,0.2384
472.0,0.2512
473.0,0.2481
474.0,0.248
475.0,0.2495
476.0,0.2411
477.0,0.2412
478.0,0.248
479.0,0.2469
480.0,0.2478
481.0,0.2531
482.0,0.2552
483.0,0.2531
484.0,0.2485
485.0,0.2375
486.0,0.2083
487.0,0.2189
488.0,0.2402
489.0,0.2408
490.0,0.2538
491.0,0.2498
492.0,0.2361
493.0,0.244
494.0,0.2466
495.0,0.249
496.0,0.2506
497.0,0.2544
498.0,0.2424
499.0,0.2451
500.0,0.2374
501.0,0.2324
502.0,0.228
503.0,0.2361
504.0,0.227
505.0,0.2377
506.0,0.2454
507.0,0.2337
508.0,0.2275
509.0,0.2348
510.0,0.2344
511.0,0.2415
512.0,0.2445
513.0,0.2316
514.0,0.2303
515.0,0.228
516.0,0.2273
517.0,0.2021
518.0,0.2123
519.0,0.2226
520.0,0.2306
521.0,0.2326
522.0,0.2325
523.0,0.2281
524.0,0.2355
525.0,0.2373
526.0,0.2263
527.0,0.2125
528.0,0.2242
529.0,0.2357
530.0,0.232
531.0,0.235
532.0,0.2268
533.0,0.2201
534.0,0.2269
535.0,0.2323
536.0,0.2349
537.0,0.226
538.0,0.2302
539.0,0.2282
540.0,0.2185
541.0,0.2189
542.0,0.2251
543.0,0.2235
544.0,0.2265
545.0,0.226
546.0,0.2262
547.0,0.2268
548.0,0.2245
549.0,0.2255
550.0,0.2282
551.0,0.2255
552.0,0.2271
553.0,0.2229
554.0,0.2281
555.0,0.2283
556.0,0.2252
557.0,0.2178
558.0,0.2156
559.0,0.211
560.0,0.2132
561.0,0.2154
562.0,0.2131
563.0,0.2181
564.0,0.2115
565.0,0.2092
566.0,0.2056
567.0,0.2087
568.0,0.205
569.0,0.1968
570.0,0.1971
571.0,0.1967
572.0,0.1991
573.0,0.2008
574.0,0.1996
575.0,0.195
576.0,0.1933
577.0,0.1958
578.0,0.1938
579.0,0.1962
580.0,0.2025
581.0,0.2056
582.0,0.2112
583.0,0.2132
584.0,0.216
585.0,0.2113
586.0,0.2071
587.0,0.2106
588.0,0.2013
589.0,0.1704
590.0,0.1787
591.0,0.194
592.0,0.1887
593.0,0.1951
594.0,0.1924
595.0,0.1842
596.0,0.1984
597.0,0.1942
598.0,0.1959
599.0,0.1969
600.0,0.1988
601.0,0.1985
602.0,0.1974
603.0,0.2014
604.0,0.2052
605.0,0.2045
606.0,0.2044
607.0,0.2073
608.0,0.2058
609.0,0.2068
610.0,0.2061
611.0,0.2077
612.0,0.2077
613.0,0.2055
614.0,0.2034
615.0,0.2085
616.0,0.2022
617.0,0.2022
618.0,0.2104
619.0,0.2086
620.0,0.2099
621.0,0.2096
622.0,0.2069
623.0,0.2036
624.0,0.2005
625.0,0.1998
626.0,0.2024
627.0,0.2029
628.0,0.1694
629.0,0.1909
630.0,0.1857
631.0,0.1968
632.0,0.1959
633.0,0.2047
634.0,0.205
635.0,0.2094
636.0,0.208
637.0,0.2125
638.0,0.2162
639.0,0.2147
640.0,0.2137
641.0,0.2144
642.0,0.2143
643.0,0.2174
644.0,0.2176
645.0,0.2174
646.0,0.2099
647.0,0.2014
648.0,0.2026
649.0,0.1973
650.0,0.206
651.0,0.2162
652.0,0.2004
653.0,0.214
654.0,0.2121
655.0,0.2006
656.0,0.1803
657.0,0.1858
658.0,0.2107
659.0,0.2132
660.0,0.2149
661.0,0.2171
662.0,0.2165
663.0,0.2125
664.0,0.2169
665.0,0.2186
666.0,0.2193
667.0,0.2199
668.0,0.2209
669.0,0.2249
670.0,0.2243
671.0,0.2247
672.0,0.2231
673.0,0.2269
674.0,0.2264
675.0,0.2248
676.0,0.2267
677.0,0.2248
678.0,0.2257
679.0,0.2224
680.0,0.2244
681.0,0.223
682.0,0.2228
683.0,0.2225
684.0,0.2213
685.0,0.2236
686.0,0.2218
687.0,0.07148
688.0,0.1108
689.0,0.1123
690.0,0.1294
691.0,0.151
692.0,0.1699
693.0,0.1684
694.0,0.1706
695.0,0.1885
696.0,0.1897
697.0,0.2133
698.0,0.2097
699.0,0.1961
700.0,0.1933
701.0,0.1873
702.0,0.1921
703.0,0.194
704.0,0.2054
705.0,0.2054
706.0,0.207
707.0,0.2082
708.0,0.2083
709.0,0.2124
710.0,0.2102
711.0,0.2114
712.0,0.2127
713.0,0.2086
714.0,0.2102
715.0,0.1997
716.0,0.199
717.0,0.1428
718.0,0.1299
719.0,0.1167
720.0,0.1189
721.0,0.1469
722.0,0.1859
723.0,0.1646
724.0,0.1374
725.0,0.1324
726.0,0.1391
727.0,0.1483
728.0,0.1309
729.0,0.1456
730.0,0.1506
731.0,0.1428
732.0,0.1639
733.0,0.1828
734.0,0.1908
735.0,0.1848
736.0,0.1836
737.0,0.1848
738.0,0.1965
739.0,0.1931
740.0,0.2007
741.0,0.2002
742.0,0.2022
743.0,0.2079
744.0,0.2084
745.0,0.2094
746.0,0.2103
747.0,0.2111
748.0,0.2107
749.0,0.2084
750.0,0.2084
751.0,0.2063
752.0,0.2074
753.0,0.2086
754.0,0.209
755.0,0.2078
756.0,0.2079
757.0,0.2081
758.0,0.2053
759.0,0.1947
760.0,0.003274
761.0,0.001445
762.0,0.03176
763.0,0.006541
764.0,0.01542
765.0,0.03157
766.0,0.05842
767.0,0.1054
768.0,0.1577
769.0,0.1706
770.0,0.188
771.0,0.195
772.0,0.1971
773.0,0.199
774.0,0.1984
775.0,0.1972
776.0,0.1997
777.0,0.1971
778.0,0.1959
779.0,0.1961
780.0,0.1951
781.0,0.1954
782.0,0.1967
783.0,0.1934
784.0,0.1946
785.0,0.1927
786.0,0.1944
787.0,0.1862
788.0,0.1819
789.0,0.182
790.0,0.1715
791.0,0.1788
792.0,0.1785
793.0,0.1751
794.0,0.1838
795.0,0.1852
796.0,0.1711
797.0,0.1703
798.0,0.1839
799.0,0.1814
800.0,0.1762
801.0,0.1735
802.0,0.1726
803.0,0.17
804.0,0.1714
805.0,0.1734
806.0,0.1828
807.0,0.1798
808.0,0.1801
809.0,0.1732
810.0,0.1701
811.0,0.1674
812.0,0.1552
813.0,0.1509
814.0,0.1199
815.0,0.1206
816.0,0.1098
817.0,0.112
818.0,0.1049
819.0,0.1278
820.0,0.1172
821.0,0.1548
822.0,0.1473
823.0,0.07549
824.0,0.1359
825.0,0.1527
826.0,0.1404
827.0,0.1545
828.0,0.1134
829.0,0.141
830.0,0.1383
831.0,0.1384
832.0,0.1309
833.0,0.1469
834.0,0.1373
835.0,0.1644
836.0,0.147
837.0,0.1646
838.0,0.1547
839.0,0.1616
840.0,0.1664
841.0,0.162
842.0,0.1656
843.0,0.1692
844.0,0.165
845.0,0.173
846.0,0.1729
847.0,0.1707
848.0,0.1681
849.0,0.1633
850.0,0.1566
851.0,0.1641
852.0,0.1639
853.0,0.159
854.0,0.1362
855.0,0.1512
856.0,0.1646
857.0,0.1693
858.0,0.1676
859.0,0.1685
860.0,0.1693
861.0,0.1682
862.0,0.1711
863.0,0.1751
864.0,0.1665
865.0,0.1652
866.0,0.1485
867.0,0.1551
868.0,0.1688
869.0,0.1654
870.0,0.1701
871.0,0.1678
872.0,0.1673
873.0,0.167
874.0,0.165
875.0,0.1616
876.0,0.1632
877.0,0.165
878.0,0.1665
879.0,0.164
880.0,0.1605
881.0,0.1573
882.0,0.1603
883.0,0.1617
884.0,0.1606
885.0,0.1618
886.0,0.1516
887.0,0.1553
888.0,0.1565
889.0,0.1604
890.0,0.1562
891.0,0.1574
892.0,0.1493
893.0,0.1416
894.0,0.1291
895.0,0.1133
896.0,0.1047
897.0,0.08118
898.0,0.09212
899.0,0.06093
900.0,0.1001
901.0,0.06396
902.0,0.08618
903.0,0.08268
904.0,0.1273
905.0,0.1204
906.0,0.1098
907.0,0.0738
908.0,0.0791
909.0,0.09026
910.0,0.0702
911.0,0.08392
912.0,0.08653
913.0,0.07074
914.0,0.07244
915.0,0.07692
916.0,0.06424
917.0,0.09101
918.0,0.06476
919.0,0.09632
920.0,0.1069
921.0,0.1095
922.0,0.09061
923.0,0.107
924.0,0.0897
925.0,0.08839
926.0,0.08754
927.0,0.1049
928.0,0.0565
929.0,0.04689
930.0,0.02894
931.0,0.02661
932.0,0.01345
933.0,0.009059
934.0,0.002219
935.0,0.01049
936.0,0.004371
937.0,0.004464
938.0,0.006123
939.0,0.02555
940.0,0.03599
941.0,0.02113
942.0,0.02689
943.0,0.01365
944.0,0.01866
945.0,0.02314
946.0,0.006865
947.0,0.02177
948.0,0.01561
949.0,0.03547
950.0,0.003828
951.0,0.03479
952.0,0.01257
953.0,0.02016
954.0,0.02961
955.0,0.02113
956.0,0.02815
957.0,0.01253
958.0,0.04415
959.0,0.02737
960.0,0.03094
961.0,0.0409
962.0,0.03875
963.0,0.0507
964.0,0.04489
965.0,0.04941
966.0,0.04981
967.0,0.04835
968.0,0.09257
969.0,0.09113
970.0,0.0821
971.0,0.1067
972.0,0.0986
973.0,0.07334
974.0,0.06945
975.0,0.07495
976.0,0.06401
977.0,0.08916
978.0,0.07781
979.0,0.08445
980.0,0.07822
981.0,0.1063
982.0,0.09717
983.0,0.09084
984.0,0.1163
985.0,0.09607
986.0,0.1228
987.0,0.1168
988.0,0.1172
989.0,0.1255
990.0,0.1159
991.0,0.1254
992.0,0.1266
993.0,0.1198
994.0,0.1272
995.0,0.1279
996.0,0.1264
997.0,0.127
998.0,0.1261
999.0,0.1259
1000.0,0.1237
1001.0,0.1267
1002.0,0.1178
1003.0,0.1242
1004.0,0.1196
1005.0,0.1172
1006.0,0.1209
1007.0,0.1239
1008.0,0.1224
1009.0,0.1207
1010.0,0.1196
1011.0,0.1234
1012.0,0.1214
1013.0,0.1235
1014.0,0.1226
1015.0,0.1216
1016.0,0.1209
1017.0,0.121
1018.0,0.1213
1019.0,0.1166
1020.0,0.1203
1021.0,0.1205
1022.0,0.1188
1023.0,0.12
1024.0,0.1163
1025.0,0.1206
1026.0,0.1195
1027.0,0.1194
1028.0,0.1189
1029.0,0.1173
1030.0,0.1189
1031.0,0.1181
1032.0,0.118
1033.0,0.1162
1034.0,0.1162
1035.0,0.1166
1036.0,0.1169
1037.0,0.1151
1038.0,0.1156
1039.0,0.1153
1040.0,0.1148
1041.0,0.1151
1042.0,0.1143
1043.0,0.1138
1044.0,0.114
1045.0,0.1124
1046.0,0.111
1047.0,0.1118
1048.0,0.1123
1049.0,0.1117
1050.0,0.111
1051.0,0.1106
1052.0,0.1099
1053.0,0.1088
1054.0,0.1087
1055.0,0.1085
1056.0,0.1077
1057.0,0.1071
1058.0,0.1041
1059.0,0.1039
1060.0,0.1036
1061.0,0.1032
1062.0,0.1034
1063.0,0.1022
1064.0,0.1035
1065.0,0.1019
1066.0,0.1005
1067.0,0.1016
1068.0,0.09884
1069.0,0.0963
1070.0,0.09911
1071.0,0.1024
1072.0,0.0999
1073.0,0.0987
1074.0,0.1033
1075.0,0.09405
1076.0,0.103
1077.0,0.0989
1078.0,0.09566
1079.0,0.1023
1080.0,0.09713
1081.0,0.09182
1082.0,0.09708
1083.0,0.09862
1084.0,0.09064
1085.0,0.0977
1086.0,0.08349
1087.0,0.08989
1088.0,0.09787
1089.0,0.08985
1090.0,0.08618
1091.0,0.0963
1092.0,0.09667
1093.0,0.07104
1094.0,0.08704
1095.0,0.07382
1096.0,0.06804
1097.0,0.09451
1098.0,0.06508
1099.0,0.06917
1100.0,0.06068
1101.0,0.06324
1102.0,0.05738
1103.0,0.05472
1104.0,0.05528
1105.0,0.0664
1106.0,0.0366
1107.0,0.06079
1108.0,0.04287
1109.0,0.04352
1110.0,0.05738
1111.0,0.02737
1112.0,0.04361
1113.0,0.01812
1114.0,0.02023
1115.0,0.01573
1116.0,0.008837
1117.0,0.001257
1118.0,0.01009
1119.0,0.002758
1120.0,0.0031
1121.0,0.004905
1122.0,0.000905
1123.0,0.00283
1124.0,0.002366
1125.0,0.003611
1126.0,0.0003377
1127.0,0.00416
1128.0,0.001221
1129.0,0.001357
1130.0,0.000881
1131.0,0.01351
1132.0,0.009234
1133.0,0.003223
1134.0,0.0002558
1135.0,0.0001251
1136.0,0.002023
1137.0,0.01224
1138.0,0.007721
1139.0,0.02006
1140.0,0.01327
1141.0,0.007487
1142.0,0.00985
1143.0,0.0182
1144.0,0.00322
1145.0,0.003003
1146.0,0.003228
1147.0,0.0003604
1148.0,0.01471
1149.0,0.009588
1150.0,0.004309
1151.0,0.007727
1152.0,0.012
1153.0,0.01398
1154.0,0.003431
1155.0,0.02093
1156.0,0.0169
1157.0,0.02426
1158.0,0.02387
1159.0,0.02722
1160.0,0.02275
1161.0,0.03434
1162.0,0.03362
1163.0,0.05932
1164.0,0.04603
1165.0,0.03887
1166.0,0.04278
1167.0,0.04883
1168.0,0.04884
1169.0,0.05093
1170.0,0.05988
1171.0,0.05837
1172.0,0.06291
1173.0,0.05981
1174.0,0.03358
1175.0,0.06188
1176.0,0.07497
1177.0,0.06713
1178.0,0.04291
1179.0,0.07533
1180.0,0.05984
1181.0,0.06193
1182.0,0.03372
1183.0,0.06235
1184.0,0.05514
1185.0,0.05033
1186.0,0.06966
1187.0,0.06292
1188.0,0.03235
1189.0,0.05822
1190.0,0.06914
1191.0,0.05865
1192.0,0.07083
1193.0,0.06537
1194.0,0.06907
1195.0,0.06059
1196.0,0.05597
1197.0,0.07062
1198.0,0.06328
1199.0,0.04449
1200.0,0.0648
1201.0,0.05868
1202.0,0.06208
1203.0,0.05881
1204.0,0.04816
1205.0,0.06578
1206.0,0.07716
1207.0,0.0603
1208.0,0.06224
1209.0,0.0636
1210.0,0.06864
1211.0,0.06237
1212.0,0.05556
1213.0,0.07151
1214.0,0.05881
1215.0,0.05749
1216.0,0.07227
1217.0,0.06859
1218.0,0.07148
1219.0,0.06924
1220.0,0.07175
1221.0,0.07414
1222.0,0.07123
1223.0,0.06966
1224.0,0.06681
1225.0,0.07292
1226.0,0.07524
1227.0,0.06375
1228.0,0.0765
1229.0,0.07531
1230.0,0.07298
1231.0,0.07833
1232.0,0.07773
1233.0,0.07064
1234.0,0.07943
1235.0,0.0781
1236.0,0.07933
1237.0,0.07659
1238.0,0.07908
1239.0,0.07802
1240.0,0.0786
1241.0,0.07687
1242.0,0.0779
1243.0,0.07736
1244.0,0.07746
1245.0,0.07805
1246.0,0.07766
1247.0,0.07695
1248.0,0.0762
1249.0,0.07706
1250.0,0.07616
1251.0,0.0743
1252.0,0.07543
1253.0,0.07281
1254.0,0.07064
1255.0,0.07484
1256.0,0.06908
1257.0,0.06797
1258.0,0.07212
1259.0,0.06405
1260.0,0.06504
1261.0,0.05509
1262.0,0.05037
1263.0,0.05032
1264.0,0.04009
1265.0,0.0501
1266.0,0.04432
1267.0,0.04779
1268.0,0.04114
1269.0,0.009339
1270.0,0.04653
1271.0,0.05588
1272.0,0.05652
1273.0,0.05523
1274.0,0.0564
1275.0,0.05829
1276.0,0.06015
1277.0,0.06236
1278.0,0.06598
1279.0,0.06555
1280.0,0.06467
1281.0,0.06297
1282.0,0.06273
1283.0,0.06712
1284.0,0.0684
1285.0,0.06923
1286.0,0.07126
1287.0,0.0681
1288.0,0.06885
1289.0,0.06262
1290.0,0.06835
1291.0,0.07008
1292.0,0.059
1293.0,0.0672
1294.0,0.06648
1295.0,0.06348
1296.0,0.05683
1297.0,0.05118
1298.0,0.06095
1299.0,0.06779
1300.0,0.04797
1301.0,0.05064
1302.0,0.06123
1303.0,0.04793
1304.0,0.0333
1305.0,0.05939
1306.0,0.05803
1307.0,0.03661
1308.0,0.0493
1309.0,0.05578
1310.0,0.03491
1311.0,0.04533
1312.0,0.04356
1313.0,0.03992
1314.0,0.03263
1315.0,0.03092
1316.0,0.04309
1317.0,0.03935
1318.0,0.04635
1319.0,0.02723
1320.0,0.0276
1321.0,0.03568
1322.0,0.03417
1323.0,0.01903
1324.0,0.02719
1325.0,0.04074
1326.0,0.03084
1327.0,0.02802
1328.0,0.02151
1329.0,0.0111
1330.0,0.0175
1331.0,0.006157
1332.0,0.007158
1333.0,0.0108
1334.0,0.01264
1335.0,0.01793
1336.0,0.0113
1337.0,0.009861
1338.0,0.01026
1339.0,0.01055
1340.0,0.01159
1341.0,0.008072
1342.0,0.009027
1343.0,0.002906
1344.0,0.001988
1345.0,0.002394
1346.0,0.0003844
1347.0,0.0003024
1348.0,5.567e-06
1349.0,2.231e-05
1350.0,2.462e-05
1351.0,3.812e-06
1352.0,9.53e-07
1353.0,4.844e-08
1354.0,1.668e-07
1355.0,1.34e-09
1356.0,2.346e-08
1357.0,3.564e-08
1358.0,1.573e-09
1359.0,1.982e-10
1360.0,7.164e-10
1361.0,8.013e-13
1362.0,2.192e-15
1363.0,9.632e-10
1364.0,3.977e-10
1365.0,7.653e-16
1366.0,4.174e-09
1367.0,1.704e-09
1368.0,5.909e-18
1369.0,1.465e-10
1370.0,7.216e-11
1371.0,4.091e-12
1372.0,9.241e-10
1373.0,1.862e-08
1374.0,8.637e-08
1375.0,1.566e-07
1376.0,1.409e-07
1377.0,6.43e-08
1378.0,6.28e-07
1379.0,2.689e-08
1380.0,3.854e-08
1381.0,1.004e-09
1382.0,8.099e-10
1383.0,1.211e-11
1384.0,1.588e-10
1385.0,7.592e-10
1386.0,7.141e-10
1387.0,8.637e-08
1388.0,1.7e-09
1389.0,2.918e-07
1390.0,2.504e-07
1391.0,1.665e-07
1392.0,1.08e-08
1393.0,5.727e-08
1394.0,2.946e-08
1395.0,2.159e-10
1396.0,1.043e-12
1397.0,2.253e-08
1398.0,6.658e-07
1399.0,4.213e-07
1400.0,4.461e-13
1401.0,1.851e-12
1402.0,1.271e-06
1403.0,1.508e-06
1404.0,4.503e-07
1405.0,1.022e-10
1406.0,1.15e-06
1407.0,1.079e-07
1408.0,9.372e-07
