interpolation:linear
wavelength,value
280.0,1.287e-20
280.5,3.827e-19
281.0,1.985e-18
281.5,4.327e-19
282.0,1.535e-18
282.5,4.159e-18
283.0,1.357e-17
283.5,2.225e-17
284.0,3.535e-16
284.5,1.006e-15
285.0,1.889e-15
285.5,1.027e-14
286.0,4.217e-14
286.5,1.92e-13
287.0,5.51e-13
287.5,2.102e-12
288.0,5.669e-12
288.5,2.093e-11
289.0,6.517e-11
289.5,2.253e-10
290.0,6.876e-10
290.5,1.509e-09
291.0,3.51e-09
291.5,1.108e-08
292.0,2.843e-08
292.5,4.509e-08
293.0,1.135e-07
293.5,3.466e-07
294.0,6.428e-07
294.5,8.602e-07
295.0,1.728e-06
295.5,4.634e-06
296.0,9.116e-06
296.5,1.3e-05
297.0,1.789e-05
297.5,4.913e-05
298.0,7.905e-05
298.5,8.084e-05
299.0,0.0001812
299.5,0.0003092
300.0,0.0003459
300.5,0.0005104
301.0,0.0009536
301.5,0.001573
302.0,0.001374
302.5,0.002643
303.0,0.004648
303.5,0.00577
304.0,0.005365
304.5,0.00778
305.0,0.01133
305.5,0.01265
306.0,0.01212
306.5,0.01484
307.0,0.02122
307.5,0.02724
308.0,0.02861
308.5,0.0332
309.0,0.03232
309.5,0.0361
310.0,0.03586
310.5,0.05775
311.0,0.07181
311.5,0.06904
312.0,0.06761
312.5,0.08113
313.0,0.08736
313.5,0.08542
314.0,0.105
314.5,0.09103
315.0,0.1191
315.5,0.1008
316.0,0.0864
316.5,0.1221
317.0,0.1516
317.5,0.1585
318.0,0.1223
318.5,0.1487
319.0,0.1746
319.5,0.1448
320.0,0.1754
320.5,0.2148
321.0,0.1875
321.5,0.1794
322.0,0.1954
322.5,0.1698
323.0,0.1668
323.5,0.2023
324.0,0.2356
324.5,0.2406
325.0,0.2093
325.5,0.2662
326.0,0.3245
326.5,0.3225
327.0,0.3223
327.5,0.3124
328.0,0.281
328.5,0.2918
329.0,0.346
329.5,0.3916
330.0,0.3959
330.5,0.3193
331.0,0.3262
331.5,0.3296
332.0,0.3533
332.5,0.3482
333.0,0.3479
333.5,0.3168
334.0,0.3249
334.5,0.3723
335.0,0.3485
335.5,0.407
336.0,0.2816
336.5,0.3305
337.0,0.2719
337.5,0.3386
338.0,0.3287
338.5,0.3794
339.0,0.3754
339.5,0.3612
340.0,0.4246
340.5,0.3825
341.0,0.3731
341.5,0.3425
342.0,0.4093
342.5,0.3829
343.0,0.4212
343.5,0.3967
344.0,0.2932
344.5,0.2962
345.0,0.3919
345.5,0.4
346.0,0.34
346.5,0.3849
347.0,0.4133
347.5,0.3342
348.0,0.381
348.5,0.3808
349.0,0.3533
349.5,0.3498
350.0,0.4326
350.5,0.4564
351.0,0.4078
351.5,0.3964
352.0,0.4257
352.5,0.3322
353.0,0.4184
353.5,0.4474
354.0,0.4645
354.5,0.4711
355.0,0.4696
355.5,0.4242
356.0,0.4439
356.5,0.379
357.0,0.3132
357.5,0.3835
358.0,0.3039
358.5,0.2597
359.0,0.3633
359.5,0.4631
360.0,0.4909
360.5,0.3924
361.0,0.3577
361.5,0.4119
362.0,0.3562
362.5,0.4931
363.0,0.4429
363.5,0.408
364.0,0.499
364.5,0.4265
365.0,0.4344
365.5,0.5453
366.0,0.5778
366.5,0.5429
367.0,0.5288
367.5,0.5488
368.0,0.4803
368.5,0.4847
369.0,0.5235
369.5,0.558
370.0,0.5949
370.5,0.4618
371.0,0.4935
371.5,0.6174
372.0,0.4098
372.5,0.4914
373.0,0.5
373.5,0.3253
374.0,0.4728
374.5,0.3916
375.0,0.3807
375.5,0.5684
376.0,0.4712
376.5,0.4884
377.0,0.5171
377.5,0.605
378.0,0.6559
378.5,0.62
379.0,0.5117
379.5,0.4675
380.0,0.4861
380.5,0.5888
381.0,0.5901
381.5,0.4678
382.0,0.4155
382.5,0.3543
383.0,0.328
383.5,0.316
384.0,0.3486
384.5,0.5127
385.0,0.5085
385.5,0.4736
386.0,0.4057
386.5,0.533
387.0,0.4429
387.5,0.4975
388.0,0.4594
388.5,0.4542
389.0,0.4903
389.5,0.5939
390.0,0.5961
390.5,0.5487
391.0,0.6459
391.5,0.6589
392.0,0.555
392.5,0.4969
393.0,0.2765
393.5,0.201
394.0,0.4091
394.5,0.5202
395.0,0.6348
395.5,0.6449
396.0,0.5592
396.5,0.3269
397.0,0.2454
397.5,0.4991
398.0,0.6989
398.5,0.7225
399.0,0.7824
399.5,0.7799
400.0,0.81
401.0,0.8223
402.0,0.8676
403.0,0.8243
404.0,0.8118
405.0,0.8117
406.0,0.7987
407.0,0.7859
408.0,0.8167
409.0,0.8742
410.0,0.7639
411.0,0.8275
412.0,0.8889
413.0,0.867
414.0,0.8777
415.0,0.88
416.0,0.8955
417.0,0.8736
418.0,0.8575
419.0,0.8689
420.0,0.8651
421.0,0.9051
422.0,0.8604
423.0,0.8405
424.0,0.889
425.0,0.8875
426.0,0.8645
427.0,0.8484
428.0,0.8265
429.0,0.7829
430.0,0.6852
431.0,0.6792
432.0,0.8769
433.0,0.8818
434.0,0.8189
435.0,0.8553
436.0,0.9637
437.0,0.9507
438.0,0.8657
439.0,0.8955
440.0,0.9241
441.0,0.9575
442.0,1.027
443.0,1.0
444.0,1.022
445.0,1.0
446.0,0.9543
447.0,1.032
448.0,1.048
449.0,1.052
450.0,1.081
451.0,1.121
452.0,1.08
453.0,1.016
454.0,1.061
455.0,1.067
456.0,1.093
457.0,1.111
458.0,1.073
459.0,1.068
460.0,1.071
461.0,1.095
462.0,1.104
463.0,1.096
464.0,1.078
465.0,1.064
466.0,1.074
467.0,1.055
468.0,1.067
469.0,1.073
470.0,1.038
471.0,1.037
472.0,1.093
473.0,1.079
474.0,1.08
475.0,1.09
476.0,1.057
477.0,1.061
478.0,1.09
479.0,1.083
480.0,1.085
481.0,1.105
482.0,1.111
483.0,1.097
484.0,1.075
485.0,1.024
486.0,0.8949
487.0,0.9377
488.0,1.029
489.0,1.032
490.0,1.086
491.0,1.067
492.0,1.008
493.0,1.041
494.0,1.051
495.0,1.06
496.0,1.066
497.0,1.083
498.0,1.032
499.0,1.046
500.0,1.015
501.0,0.9967
502.0,0.9829
503.0,1.023
504.0,0.9979
505.0,1.033
506.0,1.066
507.0,1.015
508.0,0.9829
509.0,1.01
510.0,1.005
511.0,1.032
512.0,1.043
513.0,0.987
514.0,0.9801
515.0,0.9704
516.0,0.968
517.0,0.8601
518.0,0.9043
519.0,0.9485
520.0,0.983
521.0,0.9924
522.0,0.9933
523.0,0.9755
524.0,1.011
525.0,1.023
526.0,0.9769
527.0,0.9207
528.0,0.9739
529.0,1.027
530.0,1.012
531.0,1.027
532.0,0.9917
533.0,0.9627
534.0,0.9911
535.0,1.013
536.0,1.022
537.0,0.9815
538.0,0.9988
539.0,0.9904
540.0,0.9496
541.0,0.9561
542.0,0.9861
543.0,0.9756
544.0,0.9926
545.0,0.9895
546.0,0.994
547.0,0.9935
548.0,0.9815
549.0,0.9844
550.0,0.9961
551.0,0.984
552.0,0.9908
553.0,0.9731
554.0,0.9964
555.0,0.9985
556.0,0.9855
557.0,0.9549
558.0,0.9479
559.0,0.9303
560.0,0.9419
561.0,0.9542
562.0,0.9474
563.0,0.9735
564.0,0.9471
565.0,0.939
566.0,0.9253
567.0,0.9429
568.0,0.9348
569.0,0.9132
570.0,0.9129
571.0,0.9072
572.0,0.9294
573.0,0.9395
574.0,0.9366
575.0,0.9192
576.0,0.9108
577.0,0.9206
578.0,0.9067
579.0,0.91
580.0,0.9268
581.0,0.9313
582.0,0.9486
583.0,0.9507
584.0,0.9588
585.0,0.9353
586.0,0.9161
587.0,0.9363
588.0,0.9143
589.0,0.8116
590.0,0.8486
591.0,0.8971
592.0,0.8863
593.0,0.8987
594.0,0.8928
595.0,0.8712
596.0,0.9044
597.0,0.8949
598.0,0.8922
599.0,0.8928
600.0,0.8939
601.0,0.8863
602.0,0.8803
603.0,0.8947
604.0,0.9095
605.0,0.9047
606.0,0.9009
607.0,0.9097
608.0,0.8995
609.0,0.9009
610.0,0.8944
611.0,0.899
612.0,0.8963
613.0,0.8849
614.0,0.8727
615.0,0.8916
616.0,0.8622
617.0,0.8604
618.0,0.8934
619.0,0.8843
620.0,0.89
621.0,0.8909
622.0,0.8806
623.0,0.8673
624.0,0.8523
625.0,0.8504
626.0,0.863
627.0,0.8729
628.0,0.8183
629.0,0.8533
630.0,0.8338
631.0,0.8515
632.0,0.8412
633.0,0.8663
634.0,0.8575
635.0,0.8707
636.0,0.859
637.0,0.8729
638.0,0.8811
639.0,0.8711
640.0,0.8625
641.0,0.8619
642.0,0.8578
643.0,0.8694
644.0,0.8664
645.0,0.8679
646.0,0.848
647.0,0.8388
648.0,0.8396
649.0,0.8234
650.0,0.8264
651.0,0.862
652.0,0.8273
653.0,0.8505
654.0,0.8409
655.0,0.8102
656.0,0.7176
657.0,0.7369
658.0,0.8255
659.0,0.8313
660.0,0.8347
661.0,0.8405
662.0,0.8424
663.0,0.8257
664.0,0.8352
665.0,0.8356
666.0,0.8362
667.0,0.8353
668.0,0.8355
669.0,0.8484
670.0,0.8446
671.0,0.8444
672.0,0.8371
673.0,0.8497
674.0,0.8465
675.0,0.8387
676.0,0.8444
677.0,0.836
678.0,0.8383
679.0,0.8248
680.0,0.8313
681.0,0.8259
682.0,0.8248
683.0,0.8232
684.0,0.8191
685.0,0.8261
686.0,0.8212
687.0,0.5585
688.0,0.6482
689.0,0.6503
690.0,0.68
691.0,0.7133
692.0,0.7374
693.0,0.7315
694.0,0.7254
695.0,0.7538
696.0,0.7549
697.0,0.7991
698.0,0.7867
699.0,0.7692
700.0,0.7599
701.0,0.7526
702.0,0.7573
703.0,0.7587
704.0,0.7822
705.0,0.7834
706.0,0.7824
707.0,0.7829
708.0,0.7846
709.0,0.7852
710.0,0.7854
711.0,0.7842
712.0,0.7816
713.0,0.7739
714.0,0.7768
715.0,0.7528
716.0,0.7533
717.0,0.6583
718.0,0.6053
719.0,0.555
720.0,0.5817
721.0,0.6392
722.0,0.7281
723.0,0.6795
724.0,0.6141
725.0,0.6049
726.0,0.6329
727.0,0.6408
728.0,0.6036
729.0,0.6245
730.0,0.6608
731.0,0.6327
732.0,0.675
733.0,0.7128
734.0,0.7292
735.0,0.7144
736.0,0.7134
737.0,0.7163
738.0,0.7262
739.0,0.7119
740.0,0.7301
741.0,0.7226
742.0,0.7231
743.0,0.7414
744.0,0.7392
745.0,0.7392
746.0,0.7426
747.0,0.7442
748.0,0.7426
749.0,0.7341
750.0,0.7337
751.0,0.7263
752.0,0.7294
753.0,0.733
754.0,0.7347
755.0,0.7305
756.0,0.7302
757.0,0.7313
758.0,0.7222
759.0,0.7082
760.0,0.1295
761.0,0.07012
762.0,0.3746
763.0,0.1937
764.0,0.2855
765.0,0.3747
766.0,0.4544
767.0,0.5678
768.0,0.6508
769.0,0.6635
770.0,0.6849
771.0,0.6899
772.0,0.6912
773.0,0.696
774.0,0.6926
775.0,0.6873
776.0,0.6957
777.0,0.6865
778.0,0.6823
779.0,0.6829
780.0,0.6791
781.0,0.6798
782.0,0.684
783.0,0.6721
784.0,0.6753
785.0,0.6703
786.0,0.6778
787.0,0.6664
788.0,0.6583
789.0,0.6581
790.0,0.6413
791.0,0.6462
792.0,0.6414
793.0,0.631
794.0,0.6411
795.0,0.6521
796.0,0.633
797.0,0.6339
798.0,0.6515
799.0,0.6475
800.0,0.6365
801.0,0.6347
802.0,0.6328
803.0,0.6281
804.0,0.6289
805.0,0.6267
806.0,0.6438
807.0,0.6361
808.0,0.6367
809.0,0.6251
810.0,0.6202
811.0,0.6214
812.0,0.6043
813.0,0.5921
814.0,0.5231
815.0,0.5198
816.0,0.4841
817.0,0.4927
818.0,0.4747
819.0,0.5289
820.0,0.4988
821.0,0.5805
822.0,0.5643
823.0,0.3878
824.0,0.5488
825.0,0.5705
826.0,0.5497
827.0,0.5793
828.0,0.4933
829.0,0.5462
830.0,0.5392
831.0,0.5411
832.0,0.5249
833.0,0.5573
834.0,0.5383
835.0,0.5898
836.0,0.5655
837.0,0.5914
838.0,0.5734
839.0,0.5824
840.0,0.595
841.0,0.5867
842.0,0.5878
843.0,0.5872
844.0,0.5791
845.0,0.5985
846.0,0.5958
847.0,0.5847
848.0,0.5811
849.0,0.5646
850.0,0.5409
851.0,0.5728
852.0,0.5688
853.0,0.5474
854.0,0.4727
855.0,0.5192
856.0,0.5675
857.0,0.5801
858.0,0.5758
859.0,0.5763
860.0,0.5773
861.0,0.5741
862.0,0.5831
863.0,0.5969
864.0,0.5671
865.0,0.5621
866.0,0.5054
867.0,0.5274
868.0,0.5739
869.0,0.562
870.0,0.578
871.0,0.5702
872.0,0.5681
873.0,0.567
874.0,0.5603
875.0,0.5489
876.0,0.5546
877.0,0.5602
878.0,0.5663
879.0,0.5576
880.0,0.5457
881.0,0.5375
882.0,0.5491
883.0,0.5508
884.0,0.5483
885.0,0.5525
886.0,0.5267
887.0,0.5322
888.0,0.5401
889.0,0.5461
890.0,0.5416
891.0,0.5407
892.0,0.5252
893.0,0.509
894.0,0.4915
895.0,0.4649
896.0,0.4381
897.0,0.377
898.0,0.411
899.0,0.3134
900.0,0.4205
901.0,0.3285
902.0,0.3845
903.0,0.3886
904.0,0.4878
905.0,0.4712
906.0,0.4411
907.0,0.3593
908.0,0.3663
909.0,0.3964
910.0,0.3513
911.0,0.374
912.0,0.3908
913.0,0.3565
914.0,0.3534
915.0,0.383
916.0,0.3244
917.0,0.411
918.0,0.3326
919.0,0.4182
920.0,0.4221
921.0,0.439
922.0,0.3929
923.0,0.424
924.0,0.4027
925.0,0.394
926.0,0.3983
927.0,0.4455
928.0,0.3279
929.0,0.2995
930.0,0.2356
931.0,0.2232
932.0,0.161
933.0,0.1309
934.0,0.07192
935.0,0.1339
936.0,0.08368
937.0,0.08482
938.0,0.1043
939.0,0.2163
940.0,0.2601
941.0,0.1964
942.0,0.2274
943.0,0.1496
944.0,0.1575
945.0,0.2025
946.0,0.1031
947.0,0.2034
948.0,0.1494
949.0,0.2723
950.0,0.07565
951.0,0.2681
952.0,0.144
953.0,0.186
954.0,0.2281
955.0,0.1882
956.0,0.1827
957.0,0.1443
958.0,0.2589
959.0,0.2056
960.0,0.2305
961.0,0.2587
962.0,0.2448
963.0,0.2822
964.0,0.2585
965.0,0.2812
966.0,0.2812
967.0,0.28
968.0,0.3756
969.0,0.3923
970.0,0.3602
971.0,0.4124
972.0,0.3945
973.0,0.3434
974.0,0.3259
975.0,0.3383
976.0,0.3212
977.0,0.3656
978.0,0.3473
979.0,0.3638
980.0,0.342
981.0,0.41
982.0,0.392
983.0,0.3763
984.0,0.4225
985.0,0.3905
986.0,0.4299
987.0,0.4215
988.0,0.4207
989.0,0.4286
990.0,0.4182
991.0,0.4299
992.0,0.4324
993.0,0.4228
994.0,0.4323
995.0,0.4318
996.0,0.4298
997.0,0.4305
998.0,0.4284
999.0,0.4269
1000.0,0.4239
1001.0,0.4292
1002.0,0.4173
1003.0,0.4216
1004.0,0.4112
1005.0,0.3962
1006.0,0.4117
1007.0,0.4204
1008.0,0.4181
1009.0,0.4159
1010.0,0.4141
1011.0,0.4183
1012.0,0.4146
1013.0,0.4173
1014.0,0.4143
1015.0,0.4116
1016.0,0.4097
1017.0,0.4108
1018.0,0.4092
1019.0,0.4005
1020.0,0.4071
1021.0,0.4065
1022.0,0.4034
1023.0,0.4076
1024.0,0.4023
1025.0,0.4074
1026.0,0.4056
1027.0,0.4047
1028.0,0.4038
1029.0,0.399
1030.0,0.4018
1031.0,0.4002
1032.0,0.399
1033.0,0.393
1034.0,0.393
1035.0,0.3942
1036.0,0.3963
1037.0,0.3899
1038.0,0.3916
1039.0,0.3913
1040.0,0.3898
1041.0,0.3913
1042.0,0.3886
1043.0,0.3874
1044.0,0.3887
1045.0,0.3834
1046.0,0.3792
1047.0,0.3826
1048.0,0.3847
1049.0,0.3833
1050.0,0.3816
1051.0,0.381
1052.0,0.3795
1053.0,0.3764
1054.0,0.3772
1055.0,0.3775
1056.0,0.3761
1057.0,0.375
1058.0,0.3657
1059.0,0.3661
1060.0,0.3656
1061.0,0.3651
1062.0,0.367
1063.0,0.3634
1064.0,0.3677
1065.0,0.3651
1066.0,0.3579
1067.0,0.3625
1068.0,0.3545
1069.0,0.3436
1070.0,0.3553
1071.0,0.3608
1072.0,0.3566
1073.0,0.3515
1074.0,0.3606
1075.0,0.3425
1076.0,0.3603
1077.0,0.3538
1078.0,0.3471
1079.0,0.3545
1080.0,0.3484
1081.0,0.3372
1082.0,0.3426
1083.0,0.3437
1084.0,0.3363
1085.0,0.3492
1086.0,0.3185
1087.0,0.3288
1088.0,0.3433
1089.0,0.3327
1090.0,0.3254
1091.0,0.3422
1092.0,0.3413
1093.0,0.2892
1094.0,0.3123
1095.0,0.3014
1096.0,0.2885
1097.0,0.3334
1098.0,0.284
1099.0,0.2963
1100.0,0.2753
1101.0,0.2788
1102.0,0.2663
1103.0,0.2636
1104.0,0.264
1105.0,0.2895
1106.0,0.2212
1107.0,0.2749
1108.0,0.2328
1109.0,0.2333
1110.0,0.2724
1111.0,0.1846
1112.0,0.2315
1113.0,0.1471
1114.0,0.1644
1115.0,0.1363
1116.0,0.1086
1117.0,0.03966
1118.0,0.1183
1119.0,0.05848
1120.0,0.0736
1121.0,0.09782
1122.0,0.04097
1123.0,0.06652
1124.0,0.05614
1125.0,0.0733
1126.0,0.02531
1127.0,0.0827
1128.0,0.04925
1129.0,0.05229
1130.0,0.03431
1131.0,0.1574
1132.0,0.1234
1133.0,0.07788
1134.0,0.01972
1135.0,0.0074
1136.0,0.06486
1137.0,0.1545
1138.0,0.1088
1139.0,0.1628
1140.0,0.1358
1141.0,0.1034
1142.0,0.119
1143.0,0.1693
1144.0,0.05885
1145.0,0.07512
1146.0,0.08102
1147.0,0.02827
1148.0,0.1465
1149.0,0.1168
1150.0,0.06332
1151.0,0.1079
1152.0,0.133
1153.0,0.1298
1154.0,0.07277
1155.0,0.1698
1156.0,0.1528
1157.0,0.1716
1158.0,0.1697
1159.0,0.1831
1160.0,0.1564
1161.0,0.1928
1162.0,0.1938
1163.0,0.2615
1164.0,0.2244
1165.0,0.2118
1166.0,0.2103
1167.0,0.229
1168.0,0.2315
1169.0,0.237
1170.0,0.2574
1171.0,0.251
1172.0,0.2555
1173.0,0.2569
1174.0,0.184
1175.0,0.2508
1176.0,0.2754
1177.0,0.2646
1178.0,0.1992
1179.0,0.2776
1180.0,0.2482
1181.0,0.2561
1182.0,0.1773
1183.0,0.2521
1184.0,0.2364
1185.0,0.2283
1186.0,0.2701
1187.0,0.2575
1188.0,0.1803
1189.0,0.2399
1190.0,0.2639
1191.0,0.251
1192.0,0.2676
1193.0,0.2565
1194.0,0.2643
1195.0,0.2503
1196.0,0.2412
1197.0,0.2643
1198.0,0.242
1199.0,0.2066
1200.0,0.2533
1201.0,0.2446
1202.0,0.243
1203.0,0.241
1204.0,0.2111
1205.0,0.2485
1206.0,0.274
1207.0,0.2425
1208.0,0.2384
1209.0,0.2433
1210.0,0.2533
1211.0,0.2415
1212.0,0.2389
1213.0,0.2652
1214.0,0.2445
1215.0,0.2399
1216.0,0.2643
1217.0,0.2575
1218.0,0.2622
1219.0,0.2591
1220.0,0.2624
1221.0,0.265
1222.0,0.2582
1223.0,0.2558
1224.0,0.2544
1225.0,0.2633
1226.0,0.2649
1227.0,0.2448
1228.0,0.2662
1229.0,0.265
1230.0,0.2605
1231.0,0.2677
1232.0,0.2661
1233.0,0.2573
1234.0,0.2674
1235.0,0.2657
1236.0,0.2676
1237.0,0.264
1238.0,0.2667
1239.0,0.2633
1240.0,0.2643
1241.0,0.2631
1242.0,0.2625
1243.0,0.2603
1244.0,0.2622
1245.0,0.2633
1246.0,0.2618
1247.0,0.2608
1248.0,0.2606
1249.0,0.2614
1250.0,0.2599
1251.0,0.2566
1252.0,0.2566
1253.0,0.2546
1254.0,0.2522
1255.0,0.2563
1256.0,0.2494
1257.0,0.248
1258.0,0.2525
1259.0,0.2437
1260.0,0.2449
1261.0,0.2316
1262.0,0.2249
1263.0,0.2253
1264.0,0.2085
1265.0,0.2239
1266.0,0.2157
1267.0,0.2193
1268.0,0.2083
1269.0,0.1314
1270.0,0.2186
1271.0,0.2308
1272.0,0.2315
1273.0,0.2291
1274.0,0.2298
1275.0,0.233
1276.0,0.2352
1277.0,0.2366
1278.0,0.241
1279.0,0.2389
1280.0,0.2358
1281.0,0.2249
1282.0,0.2166
1283.0,0.2333
1284.0,0.2389
1285.0,0.2405
1286.0,0.2436
1287.0,0.24
1288.0,0.2399
1289.0,0.2326
1290.0,0.2378
1291.0,0.2411
1292.0,0.227
1293.0,0.2365
1294.0,0.2348
1295.0,0.2338
1296.0,0.2236
1297.0,0.2117
1298.0,0.2274
1299.0,0.2367
1300.0,0.2012
1301.0,0.2073
1302.0,0.2267
1303.0,0.1985
1304.0,0.1701
1305.0,0.222
1306.0,0.2221
1307.0,0.1735
1308.0,0.1987
1309.0,0.2205
1310.0,0.1702
1311.0,0.1907
1312.0,0.1856
1313.0,0.1821
1314.0,0.1633
1315.0,0.1613
1316.0,0.1878
1317.0,0.1779
1318.0,0.1931
1319.0,0.1517
1320.0,0.1468
1321.0,0.1708
1322.0,0.1726
1323.0,0.1304
1324.0,0.1488
1325.0,0.1851
1326.0,0.1593
1327.0,0.152
1328.0,0.1312
1329.0,0.09895
1330.0,0.1286
1331.0,0.07804
1332.0,0.08046
1333.0,0.1119
1334.0,0.09459
1335.0,0.13
1336.0,0.103
1337.0,0.09114
1338.0,0.09864
1339.0,0.09815
1340.0,0.09537
1341.0,0.09334
1342.0,0.09802
1343.0,0.06675
1344.0,0.03995
1345.0,0.0576
1346.0,0.02882
1347.0,0.02934
1348.0,0.001949
1349.0,0.006957
1350.0,0.007193
1351.0,0.001787
1352.0,0.0004949
1353.0,2.598e-05
1354.0,8.793e-05
1355.0,7.529e-07
1356.0,1.272e-05
1357.0,1.937e-05
1358.0,8.896e-07
1359.0,1.175e-07
1360.0,4.139e-07
1361.0,5.098e-10
1362.0,1.456e-12
1363.0,5.689e-07
1364.0,2.361e-07
1365.0,5.395e-13
1366.0,2.458e-06
1367.0,9.985e-07
1368.0,4.646e-15
1369.0,8.85e-08
1370.0,4.453e-08
1371.0,2.59e-09
1372.0,5.494e-07
1373.0,1.077e-05
1374.0,4.91e-05
1375.0,8.939e-05
1376.0,7.905e-05
1377.0,3.638e-05
1378.0,0.0003534
1379.0,1.53e-05
1380.0,2.233e-05
1381.0,5.906e-07
1382.0,4.983e-07
1383.0,7.599e-09
1384.0,1.009e-07
1385.0,4.614e-07
1386.0,4.503e-07
1387.0,5.163e-05
1388.0,1.019e-06
1389.0,0.0001714
1390.0,0.0001476
1391.0,9.886e-05
1392.0,6.472e-06
1393.0,3.4e-05
1394.0,1.816e-05
1395.0,1.367e-07
1396.0,7.254e-10
1397.0,1.365e-05
1398.0,0.000398
1399.0,0.0002524
1400.0,3.216e-10
1401.0,1.294e-09
1402.0,0.0006855
1403.0,0.0008656
1404.0,0.0002644
1405.0,6.767e-08
1406.0,0.0006934
1407.0,6.089e-05
1408.0,0.0005665
1409.0,0.0001924
1410.0,0.0001529
1411.0,0.0007606
1412.0,0.001021
1413.0,0.01042
1414.0,0.0001205
1415.0,5.813e-05
1416.0,0.01714
1417.0,0.005149
1418.0,0.00586
1419.0,0.0009076
1420.0,0.003584
1421.0,0.003875
1422.0,0.02238
1423.0,0.004325
1424.0,0.00812
1425.0,0.01193
1426.0,0.01361
1427.0,0.0252
1428.0,0.001833
1429.0,0.01875
1430.0,0.03222
1431.0,0.03546
1432.0,0.001442
1433.0,0.02245
1434.0,0.01136
1435.0,0.01117
1436.0,0.02186
1437.0,0.01675
1438.0,0.006989
1439.0,0.02986
1440.0,0.02236
1441.0,0.01687
1442.0,0.01873
1443.0,0.0238
1444.0,0.03314
