interpolation:linear
wavelength,value
280.0,3.3669999999999996e-22
280.5,1.1050000000000001e-20
281.0,5.916000000000001e-20
281.5,4.211e-19
282.0,6.964e-19
282.5,1.727e-18
283.0,5.46e-18
283.5,8.886e-18
284.0,1.461e-16
284.5,4.256e-16
285.0,7.096e-16
285.5,3.536e-15
286.0,1.425e-14
286.5,6.411e-14
287.0,1.838e-13
287.5,7.08e-13
288.0,2.421e-12
288.5,7.324e-12
289.0,1.95e-11
289.5,5.884e-11
290.0,1.633e-10
290.5,3.329e-10
291.0,7.145e-10
291.5,2.051e-09
292.0,4.179e-09
292.5,5.878e-09
293.0,1.264e-08
293.5,3.088e-08
294.0,4.837e-08
294.5,6.618e-08
295.0,1.123e-07
295.5,1.922e-07
296.0,3.754e-07
296.5,5.324e-07
297.0,7.295e-07
297.5,2.001e-06
298.0,3.225e-06
298.5,3.308e-06
299.0,7.448e-06
299.5,1.291e-05
300.0,1.459e-05
300.5,2.177e-05
301.0,4.158e-05
301.5,6.991e-05
302.0,6.156e-05
302.5,0.0001243
303.0,0.0002343
303.5,0.0003061
304.0,0.0002978
304.5,0.0004874
305.0,0.0008439
305.5,0.001053
306.0,0.001054
306.5,0.001388
307.0,0.002336
307.5,0.003514
308.0,0.003787
308.5,0.004759
309.0,0.004871
309.5,0.006102
310.0,0.00639
310.5,0.01056
311.0,0.01371
311.5,0.01343
312.0,0.01444
312.5,0.01843
313.0,0.0205
313.5,0.01945
314.0,0.02574
314.5,0.0246
315.0,0.03277
315.5,0.02644
316.0,0.02454
316.5,0.03712
317.0,0.04604
317.5,0.04722
318.0,0.03817
318.5,0.0507
319.0,0.06224
319.5,0.04805
320.0,0.0576
320.5,0.0772
321.0,0.07311
321.5,0.07054
322.0,0.07041
322.5,0.06147
323.0,0.06391
323.5,0.08171
324.0,0.09606
324.5,0.09586
325.0,0.08107
325.5,0.108
326.0,0.1333
326.5,0.1365
327.0,0.135
327.5,0.1291
328.0,0.1116
328.5,0.1216
329.0,0.1498
329.5,0.1716
330.0,0.172
330.5,0.1347
331.0,0.1363
331.5,0.1408
332.0,0.1558
332.5,0.1559
333.0,0.1545
333.5,0.1374
334.0,0.1405
334.5,0.1654
335.0,0.1573
335.5,0.1842
336.0,0.1275
336.5,0.1482
337.0,0.1206
337.5,0.1496
338.0,0.1485
338.5,0.1722
339.0,0.1707
339.5,0.1642
340.0,0.1923
340.5,0.1737
341.0,0.1699
341.5,0.1564
342.0,0.1871
342.5,0.1752
343.0,0.1925
343.5,0.1812
344.0,0.1337
344.5,0.1353
345.0,0.1795
345.5,0.1835
346.0,0.1562
346.5,0.177
347.0,0.19
347.5,0.1536
348.0,0.1754
348.5,0.1756
349.0,0.163
349.5,0.1615
350.0,0.1999
350.5,0.211
351.0,0.1885
351.5,0.183
352.0,0.1969
352.5,0.1538
353.0,0.194
353.5,0.2076
354.0,0.2157
354.5,0.2188
355.0,0.2182
355.5,0.1973
356.0,0.2066
356.5,0.1765
357.0,0.1459
357.5,0.1786
358.0,0.1417
358.5,0.1211
359.0,0.1695
359.5,0.2159
360.0,0.2291
360.5,0.1832
361.0,0.1672
361.5,0.1927
362.0,0.1669
362.5,0.2312
363.0,0.2078
363.5,0.1916
364.0,0.2346
364.5,0.2006
365.0,0.2044
365.5,0.2568
366.0,0.2723
366.5,0.2561
367.0,0.2495
367.5,0.2591
368.0,0.2269
368.5,0.2291
369.0,0.2476
369.5,0.2641
370.0,0.2817
370.5,0.2188
371.0,0.234
371.5,0.2929
372.0,0.1945
372.5,0.2334
373.0,0.2376
373.5,0.1547
374.0,0.225
374.5,0.1865
375.0,0.1814
375.5,0.2709
376.0,0.2247
376.5,0.2329
377.0,0.2468
377.5,0.289
378.0,0.3134
378.5,0.2963
379.0,0.2446
379.5,0.2235
380.0,0.2325
380.5,0.2819
381.0,0.2827
381.5,0.2243
382.0,0.1994
382.5,0.1702
383.0,0.1577
383.5,0.152
384.0,0.1678
384.5,0.247
385.0,0.2451
385.5,0.2284
386.0,0.1958
386.5,0.2574
387.0,0.214
387.5,0.2405
388.0,0.2222
388.5,0.2198
389.0,0.2374
389.5,0.2878
390.0,0.289
390.5,0.2661
391.0,0.3135
391.5,0.3199
392.0,0.2696
392.5,0.2416
393.0,0.1345
393.5,0.09786
394.0,0.1993
394.5,0.2535
395.0,0.3095
395.5,0.3146
396.0,0.2729
396.5,0.1597
397.0,0.1199
397.5,0.2441
398.0,0.3419
398.5,0.3536
399.0,0.3833
399.5,0.3822
400.0,0.397
401.0,0.4007
402.0,0.4234
403.0,0.4028
404.0,0.397
405.0,0.3974
406.0,0.3915
407.0,0.3857
408.0,0.401
409.0,0.4297
410.0,0.3759
411.0,0.4077
412.0,0.4386
413.0,0.428
414.0,0.4338
415.0,0.4355
416.0,0.4438
417.0,0.4333
418.0,0.4256
419.0,0.4317
420.0,0.4302
421.0,0.4506
422.0,0.4286
423.0,0.4191
424.0,0.4435
425.0,0.4432
426.0,0.4324
427.0,0.4247
428.0,0.414
429.0,0.3928
430.0,0.3441
431.0,0.3411
432.0,0.4411
433.0,0.4439
434.0,0.4124
435.0,0.4309
436.0,0.4862
437.0,0.4804
438.0,0.4379
439.0,0.4525
440.0,0.4674
441.0,0.4849
442.0,0.5204
443.0,0.5067
444.0,0.5184
445.0,0.5072
446.0,0.4849
447.0,0.525
448.0,0.5329
449.0,0.536
450.0,0.5515
451.0,0.5723
452.0,0.5518
453.0,0.5194
454.0,0.5429
455.0,0.5464
456.0,0.5597
457.0,0.5692
458.0,0.5495
459.0,0.5469
460.0,0.5483
461.0,0.5611
462.0,0.566
463.0,0.5622
464.0,0.5538
465.0,0.5477
466.0,0.5536
467.0,0.5433
468.0,0.5498
469.0,0.5528
470.0,0.5351
471.0,0.5347
472.0,0.5634
473.0,0.5562
474.0,0.5565
475.0,0.5608
476.0,0.5433
477.0,0.5443
478.0,0.5596
479.0,0.5567
480.0,0.5582
481.0,0.5693
482.0,0.5731
483.0,0.567
484.0,0.5559
485.0,0.5302
486.0,0.4641
487.0,0.4869
488.0,0.5342
489.0,0.5356
490.0,0.5639
491.0,0.5545
492.0,0.5238
493.0,0.541
494.0,0.5466
495.0,0.5514
496.0,0.5548
497.0,0.5634
498.0,0.5369
499.0,0.5435
500.0,0.5273
501.0,0.5171
502.0,0.5089
503.0,0.5286
504.0,0.5123
505.0,0.533
506.0,0.5502
507.0,0.5237
508.0,0.5083
509.0,0.5232
510.0,0.5211
511.0,0.5357
512.0,0.5418
513.0,0.5129
514.0,0.5097
515.0,0.5046
516.0,0.5033
517.0,0.4474
518.0,0.4703
519.0,0.4932
520.0,0.5111
521.0,0.5158
522.0,0.516
523.0,0.5065
524.0,0.5242
525.0,0.5296
526.0,0.5056
527.0,0.4759
528.0,0.5028
529.0,0.5296
530.0,0.5217
531.0,0.5292
532.0,0.5109
533.0,0.4959
534.0,0.5108
535.0,0.5223
536.0,0.5275
537.0,0.507
538.0,0.5161
539.0,0.5117
540.0,0.4905
541.0,0.4928
542.0,0.5079
543.0,0.5032
544.0,0.5112
545.0,0.5097
546.0,0.5113
547.0,0.5117
548.0,0.5059
549.0,0.5077
550.0,0.5137
551.0,0.5076
552.0,0.5112
553.0,0.5019
554.0,0.5138
555.0,0.5146
556.0,0.5078
557.0,0.4918
558.0,0.4876
559.0,0.478
560.0,0.4837
561.0,0.4895
562.0,0.4854
563.0,0.4981
564.0,0.484
565.0,0.4794
566.0,0.4719
567.0,0.4803
568.0,0.4745
569.0,0.4603
570.0,0.4606
571.0,0.4585
572.0,0.4676
573.0,0.4722
574.0,0.4703
575.0,0.4608
576.0,0.4567
577.0,0.4619
578.0,0.4559
579.0,0.459
580.0,0.4699
581.0,0.4739
582.0,0.4843
583.0,0.4867
584.0,0.4917
585.0,0.4801
586.0,0.4703
587.0,0.4797
588.0,0.4645
589.0,0.4045
590.0,0.4236
591.0,0.4524
592.0,0.4443
593.0,0.454
594.0,0.4496
595.0,0.4358
596.0,0.4588
597.0,0.4523
598.0,0.4529
599.0,0.4541
600.0,0.4562
601.0,0.4536
602.0,0.4507
603.0,0.4587
604.0,0.4666
605.0,0.4646
606.0,0.4633
607.0,0.4686
608.0,0.464
609.0,0.4654
610.0,0.4627
611.0,0.4655
612.0,0.4645
613.0,0.459
614.0,0.4533
615.0,0.4637
616.0,0.4489
617.0,0.4483
618.0,0.4658
619.0,0.4613
620.0,0.4642
621.0,0.4642
622.0,0.4583
623.0,0.4509
624.0,0.4436
625.0,0.4427
626.0,0.4491
627.0,0.4527
628.0,0.4066
629.0,0.4364
630.0,0.4257
631.0,0.4409
632.0,0.4367
633.0,0.4522
634.0,0.4497
635.0,0.4576
636.0,0.4526
637.0,0.4608
638.0,0.4665
639.0,0.4619
640.0,0.4582
641.0,0.4585
642.0,0.4571
643.0,0.4634
644.0,0.4626
645.0,0.4629
646.0,0.4502
647.0,0.4403
648.0,0.4408
649.0,0.4317
650.0,0.4396
651.0,0.4597
652.0,0.4348
653.0,0.454
654.0,0.4494
655.0,0.4297
656.0,0.3829
657.0,0.3936
658.0,0.4429
659.0,0.4469
660.0,0.4491
661.0,0.4525
662.0,0.4523
663.0,0.4438
664.0,0.4507
665.0,0.4523
666.0,0.4532
667.0,0.4534
668.0,0.4543
669.0,0.4617
670.0,0.46
671.0,0.4603
672.0,0.4566
673.0,0.4637
674.0,0.4623
675.0,0.4583
676.0,0.4617
677.0,0.4574
678.0,0.4589
679.0,0.4517
680.0,0.4555
681.0,0.4526
682.0,0.452
683.0,0.4512
684.0,0.4489
685.0,0.4531
686.0,0.4501
687.0,0.2319
688.0,0.3009
689.0,0.303
690.0,0.3285
691.0,0.3583
692.0,0.3817
693.0,0.3779
694.0,0.376
695.0,0.4002
696.0,0.4012
697.0,0.4357
698.0,0.4287
699.0,0.4117
700.0,0.4063
701.0,0.3996
702.0,0.4051
703.0,0.4064
704.0,0.4235
705.0,0.4241
706.0,0.4253
707.0,0.4263
708.0,0.427
709.0,0.4304
710.0,0.4289
711.0,0.4293
712.0,0.4293
713.0,0.4237
714.0,0.4257
715.0,0.4095
716.0,0.409
717.0,0.3301
718.0,0.301
719.0,0.2737
720.0,0.2843
721.0,0.3279
722.0,0.3904
723.0,0.3558
724.0,0.3113
725.0,0.3033
726.0,0.3183
727.0,0.3291
728.0,0.3014
729.0,0.3213
730.0,0.3382
731.0,0.3219
732.0,0.3534
733.0,0.3825
734.0,0.3942
735.0,0.3846
736.0,0.3838
737.0,0.3854
738.0,0.3979
739.0,0.3901
740.0,0.4023
741.0,0.3994
742.0,0.401
743.0,0.4116
744.0,0.4112
745.0,0.4119
746.0,0.4138
747.0,0.4149
748.0,0.4141
749.0,0.4094
750.0,0.4092
751.0,0.4051
752.0,0.407
753.0,0.4091
754.0,0.41
755.0,0.4077
756.0,0.4076
757.0,0.4082
758.0,0.4029
759.0,0.3906
760.0,0.02201
761.0,0.008067
762.0,0.1334
763.0,0.04315
764.0,0.08331
765.0,0.1332
766.0,0.1906
767.0,0.2725
768.0,0.3433
769.0,0.3574
770.0,0.3775
771.0,0.3841
772.0,0.3861
773.0,0.3891
774.0,0.3874
775.0,0.3847
776.0,0.3894
777.0,0.3843
778.0,0.382
779.0,0.3823
780.0,0.3802
781.0,0.3807
782.0,0.3831
783.0,0.3766
784.0,0.3785
785.0,0.3754
786.0,0.3793
787.0,0.3695
788.0,0.3634
789.0,0.3631
790.0,0.3491
791.0,0.3565
792.0,0.3545
793.0,0.3483
794.0,0.3587
795.0,0.3635
796.0,0.3463
797.0,0.3462
798.0,0.3624
799.0,0.3589
800.0,0.3513
801.0,0.3487
802.0,0.3477
803.0,0.3442
804.0,0.3454
805.0,0.3461
806.0,0.3589
807.0,0.3539
808.0,0.3545
809.0,0.3455
810.0,0.3412
811.0,0.3384
812.0,0.3246
813.0,0.3161
814.0,0.2666
815.0,0.2657
816.0,0.2459
817.0,0.2512
818.0,0.2391
819.0,0.2771
820.0,0.2575
821.0,0.3156
822.0,0.3042
823.0,0.1851
824.0,0.2898
825.0,0.3101
826.0,0.2936
827.0,0.3147
828.0,0.2529
829.0,0.2928
830.0,0.2878
831.0,0.2889
832.0,0.2775
833.0,0.3017
834.0,0.2867
835.0,0.3251
836.0,0.3043
837.0,0.3263
838.0,0.3126
839.0,0.322
840.0,0.3299
841.0,0.3237
842.0,0.3267
843.0,0.329
844.0,0.3231
845.0,0.3358
846.0,0.3347
847.0,0.3292
848.0,0.3261
849.0,0.3168
850.0,0.3036
851.0,0.3203
852.0,0.3186
853.0,0.3076
854.0,0.2648
855.0,0.292
856.0,0.3187
857.0,0.3265
858.0,0.3238
859.0,0.3246
860.0,0.3255
861.0,0.3236
862.0,0.3288
863.0,0.3366
864.0,0.3198
865.0,0.3171
866.0,0.2852
867.0,0.2976
868.0,0.3239
869.0,0.3172
870.0,0.3263
871.0,0.3219
872.0,0.3208
873.0,0.3202
874.0,0.3164
875.0,0.3099
876.0,0.3131
877.0,0.3163
878.0,0.3196
879.0,0.3147
880.0,0.308
881.0,0.3028
882.0,0.3091
883.0,0.3107
884.0,0.309
885.0,0.3113
886.0,0.2948
887.0,0.2994
888.0,0.303
889.0,0.3081
890.0,0.3035
891.0,0.304
892.0,0.2925
893.0,0.2808
894.0,0.2652
895.0,0.2436
896.0,0.2276
897.0,0.1875
898.0,0.2085
899.0,0.1496
900.0,0.2187
901.0,0.1568
902.0,0.196
903.0,0.1936
904.0,0.2631
905.0,0.2515
906.0,0.2332
907.0,0.1764
908.0,0.1824
909.0,0.2027
910.0,0.1694
911.0,0.1879
912.0,0.1972
913.0,0.1714
914.0,0.172
915.0,0.1857
916.0,0.1558
917.0,0.2073
918.0,0.1589
919.0,0.2145
920.0,0.2239
921.0,0.2326
922.0,0.2006
923.0,0.2255
924.0,0.2037
925.0,0.1998
926.0,0.2008
927.0,0.2319
928.0,0.1496
929.0,0.1313
930.0,0.09486
931.0,0.09013
932.0,0.05678
933.0,0.04272
934.0,0.01678
935.0,0.04641
936.0,0.02445
937.0,0.02458
938.0,0.03181
939.0,0.08711
940.0,0.111
941.0,0.07599
942.0,0.09203
943.0,0.05471
944.0,0.0635
945.0,0.08005
946.0,0.03314
947.0,0.07831
948.0,0.05679
949.0,0.1125
950.0,0.02108
951.0,0.1119
952.0,0.05057
953.0,0.07162
954.0,0.09508
955.0,0.07322
956.0,0.07821
957.0,0.0501
958.0,0.1191
959.0,0.08547
960.0,0.09581
961.0,0.1149
962.0,0.1082
963.0,0.1312
964.0,0.1184
965.0,0.1306
966.0,0.1298
967.0,0.1283
968.0,0.1976
969.0,0.2026
970.0,0.1837
971.0,0.2216
972.0,0.2095
973.0,0.171
974.0,0.1613
975.0,0.1713
976.0,0.1562
977.0,0.1911
978.0,0.1759
979.0,0.1875
980.0,0.1746
981.0,0.2207
982.0,0.2067
983.0,0.1962
984.0,0.2326
985.0,0.2058
986.0,0.2401
987.0,0.2315
988.0,0.2314
989.0,0.2415
990.0,0.2299
991.0,0.2418
992.0,0.2436
993.0,0.2344
994.0,0.2439
995.0,0.2442
996.0,0.2425
997.0,0.2432
998.0,0.2418
999.0,0.2411
1000.0,0.2385
1001.0,0.2425
1002.0,0.232
1003.0,0.238
1004.0,0.2311
1005.0,0.224
1006.0,0.2321
1007.0,0.2374
1008.0,0.2354
1009.0,0.2334
1010.0,0.2321
1011.0,0.2363
1012.0,0.2335
1013.0,0.2359
1014.0,0.2342
1015.0,0.2326
1016.0,0.2315
1017.0,0.2319
1018.0,0.2315
1019.0,0.2251
1020.0,0.23
1021.0,0.23
1022.0,0.2277
1023.0,0.23
1024.0,0.2255
1025.0,0.2303
1026.0,0.229
1027.0,0.2285
1028.0,0.2279
1029.0,0.2251
1030.0,0.2272
1031.0,0.226
1032.0,0.2255
1033.0,0.2221
1034.0,0.2222
1035.0,0.2229
1036.0,0.2239
1037.0,0.2203
1038.0,0.2212
1039.0,0.221
1040.0,0.2201
1041.0,0.2208
1042.0,0.2192
1043.0,0.2185
1044.0,0.2191
1045.0,0.2161
1046.0,0.2136
1047.0,0.2154
1048.0,0.2165
1049.0,0.2156
1050.0,0.2145
1051.0,0.214
1052.0,0.213
1053.0,0.2111
1054.0,0.2114
1055.0,0.2113
1056.0,0.2103
1057.0,0.2095
1058.0,0.2041
1059.0,0.2041
1060.0,0.2037
1061.0,0.2033
1062.0,0.2041
1063.0,0.2019
1064.0,0.2044
1065.0,0.2024
1066.0,0.1988
1067.0,0.2012
1068.0,0.1964
1069.0,0.1907
1070.0,0.1968
1071.0,0.2011
1072.0,0.1978
1073.0,0.1952
1074.0,0.2017
1075.0,0.1878
1076.0,0.2013
1077.0,0.1956
1078.0,0.1909
1079.0,0.1987
1080.0,0.1927
1081.0,0.1846
1082.0,0.1908
1083.0,0.1922
1084.0,0.1834
1085.0,0.1934
1086.0,0.1716
1087.0,0.1804
1088.0,0.1914
1089.0,0.1819
1090.0,0.1761
1091.0,0.1898
1092.0,0.19
1093.0,0.1517
1094.0,0.1727
1095.0,0.1586
1096.0,0.1493
1097.0,0.1857
1098.0,0.1455
1099.0,0.1532
1100.0,0.1388
1101.0,0.1418
1102.0,0.1329
1103.0,0.1298
1104.0,0.1302
1105.0,0.1489
1106.0,0.09926
1107.0,0.1387
1108.0,0.1089
1109.0,0.1106
1110.0,0.1357
1111.0,0.08059
1112.0,0.1103
1113.0,0.0593
1114.0,0.06679
1115.0,0.05456
1116.0,0.03794
1117.0,0.009196
1118.0,0.04264
1119.0,0.01674
1120.0,0.02044
1121.0,0.0294
1122.0,0.009044
1123.0,0.01866
1124.0,0.01568
1125.0,0.02156
1126.0,0.004478
1127.0,0.02462
1128.0,0.01115
1129.0,0.01217
1130.0,0.00733
1131.0,0.05703
1132.0,0.04265
1133.0,0.02155
1134.0,0.003366
1135.0,0.001404
1136.0,0.01621
1137.0,0.05383
1138.0,0.03691
1139.0,0.0676
1140.0,0.05162
1141.0,0.03523
1142.0,0.04276
1143.0,0.06627
1144.0,0.01779
1145.0,0.02077
1146.0,0.02234
1147.0,0.00493
1148.0,0.05662
1149.0,0.04175
1150.0,0.02024
1151.0,0.03662
1152.0,0.04923
1153.0,0.05135
1154.0,0.0204
1155.0,0.07035
1156.0,0.06073
1157.0,0.07349
1158.0,0.07249
1159.0,0.08099
1160.0,0.06688
1161.0,0.08968
1162.0,0.08937
1163.0,0.1343
1164.0,0.1104
1165.0,0.09923
1166.0,0.1026
1167.0,0.114
1168.0,0.1142
1169.0,0.1182
1170.0,0.1327
1171.0,0.1292
1172.0,0.1344
1173.0,0.1325
1174.0,0.08516
1175.0,0.1319
1176.0,0.1508
1177.0,0.1408
1178.0,0.09853
1179.0,0.1521
1180.0,0.1295
1181.0,0.1339
1182.0,0.08426
1183.0,0.1331
1184.0,0.122
1185.0,0.1151
1186.0,0.1451
1187.0,0.1354
1188.0,0.08421
1189.0,0.1258
1190.0,0.1423
1191.0,0.1297
1192.0,0.1449
1193.0,0.137
1194.0,0.1424
1195.0,0.131
1196.0,0.1241
1197.0,0.144
1198.0,0.13
1199.0,0.103
1200.0,0.1351
1201.0,0.1275
1202.0,0.1292
1203.0,0.1267
1204.0,0.1076
1205.0,0.1342
1206.0,0.1521
1207.0,0.1277
1208.0,0.128
1209.0,0.1311
1210.0,0.1383
1211.0,0.129
1212.0,0.1232
1213.0,0.145
1214.0,0.1278
1215.0,0.1249
1216.0,0.145
1217.0,0.1397
1218.0,0.1436
1219.0,0.141
1220.0,0.144
1221.0,0.1463
1222.0,0.1419
1223.0,0.1399
1224.0,0.1375
1225.0,0.1451
1226.0,0.1472
1227.0,0.1318
1228.0,0.1489
1229.0,0.1472
1230.0,0.144
1231.0,0.1507
1232.0,0.1497
1233.0,0.1411
1234.0,0.1514
1235.0,0.1499
1236.0,0.1514
1237.0,0.1478
1238.0,0.1509
1239.0,0.1489
1240.0,0.1497
1241.0,0.1481
1242.0,0.1485
1243.0,0.1474
1244.0,0.1481
1245.0,0.1489
1246.0,0.1481
1247.0,0.1473
1248.0,0.1467
1249.0,0.1476
1250.0,0.1464
1251.0,0.144
1252.0,0.1447
1253.0,0.1423
1254.0,0.1399
1255.0,0.1442
1256.0,0.1379
1257.0,0.1366
1258.0,0.141
1259.0,0.1324
1260.0,0.1335
1261.0,0.1216
1262.0,0.1157
1263.0,0.1158
1264.0,0.1019
1265.0,0.1152
1266.0,0.1078
1267.0,0.1118
1268.0,0.1027
1269.0,0.04568
1270.0,0.1106
1271.0,0.1218
1272.0,0.1226
1273.0,0.1208
1274.0,0.1219
1275.0,0.1245
1276.0,0.1265
1277.0,0.1285
1278.0,0.1327
1279.0,0.1314
1280.0,0.1299
1281.0,0.1247
1282.0,0.1216
1283.0,0.1306
1284.0,0.1335
1285.0,0.1346
1286.0,0.1372
1287.0,0.1337
1288.0,0.1341
1289.0,0.1271
1290.0,0.133
1291.0,0.1354
1292.0,0.1222
1293.0,0.1316
1294.0,0.1305
1295.0,0.1282
1296.0,0.1194
1297.0,0.1108
1298.0,0.124
1299.0,0.1322
1300.0,0.1042
1301.0,0.1088
1302.0,0.1237
1303.0,0.1036
1304.0,0.08153
1305.0,0.1208
1306.0,0.12
1307.0,0.08584
1308.0,0.105
1309.0,0.118
1310.0,0.08359
1311.0,0.09906
1312.0,0.09541
1313.0,0.09192
1314.0,0.0798
1315.0,0.07724
1316.0,0.09615
1317.0,0.09012
1318.0,0.1009
1319.0,0.07071
1320.0,0.07012
1321.0,0.08456
1322.0,0.08386
1323.0,0.05662
1324.0,0.06969
1325.0,0.09392
1326.0,0.07654
1327.0,0.07184
1328.0,0.05968
1329.0,0.0393
1330.0,0.05407
1331.0,0.02691
1332.0,0.02942
1333.0,0.04202
1334.0,0.03938
1335.0,0.05587
1336.0,0.04082
1337.0,0.03518
1338.0,0.03769
1339.0,0.03831
1340.0,0.03898
1341.0,0.03399
1342.0,0.03623
1343.0,0.01833
1344.0,0.01158
1345.0,0.01629
1346.0,0.005211
1347.0,0.004838
1348.0,0.0001266
1349.0,0.0005619
1350.0,0.0006763
1351.0,7.102e-05
1352.0,6.543e-06
1353.0,1.679e-07
1354.0,1.01e-06
1355.0,2.134e-09
1356.0,8.08e-08
1357.0,1.22e-07
1358.0,2.6e-09
1359.0,2.233e-10
1360.0,9.724e-10
1361.0,8.287e-13
1362.0,2.253e-15
1363.0,1.117e-09
1364.0,4.76e-10
1365.0,7.846e-16
1366.0,5.172e-09
1367.0,2.444e-09
1368.0,6.057e-18
1369.0,1.758e-10
1370.0,7.971e-11
1371.0,4.348e-12
1372.0,1.361e-09
1373.0,4.309e-08
1374.0,3.313e-07
1375.0,5.069e-07
1376.0,9.45e-07
1377.0,3.884e-07
1378.0,4.135e-06
1379.0,1.691e-07
1380.0,1.516e-07
1381.0,3.325e-09
1382.0,1.125e-09
1383.0,1.546e-11
1384.0,1.828e-10
1385.0,1.508e-09
1386.0,8.762e-10
1387.0,2.12e-07
1388.0,5.734e-09
1389.0,1.479e-06
1390.0,1.165e-06
1391.0,7.541e-07
1392.0,4.808e-08
1393.0,3.377e-07
1394.0,6.29e-08
1395.0,3.589e-10
1396.0,1.087e-12
1397.0,1.067e-07
1398.0,4.084e-06
1399.0,2.761e-06
1400.0,4.599e-13
1401.0,1.943e-12
1402.0,2.487e-05
1403.0,2.413e-05
1404.0,6.419e-06
1405.0,1.397e-10
1406.0,1.096e-05
1407.0,1.711e-06
1408.0,9.791e-06
1409.0,1.833e-06
1410.0,2.606e-06
1411.0,2.246e-05
1412.0,4.116e-05
1413.0,0.0008701
1414.0,2.276e-06
1415.0,8.544e-07
1416.0,0.002637
1417.0,0.0005037
1418.0,0.0004415
1419.0,6.164e-05
1420.0,0.0002654
1421.0,0.0003486
1422.0,0.003446
1423.0,0.0006125
1424.0,0.001293
1425.0,0.00162
1426.0,0.002393
1427.0,0.005486
1428.0,0.0001064
