interpolation:linear
wavelength,value
280.0,5.660999999999999e-23
280.5,1.901e-21
281.0,1.0290000000000001e-20
281.5,3.34e-19
282.0,5.009e-19
282.5,1.173e-18
283.0,3.63e-18
283.5,5.895e-18
284.0,9.661e-17
284.5,2.834e-16
285.0,6.619e-16
285.5,2.885e-15
286.0,1.137e-14
286.5,4.96e-14
287.0,1.408e-13
287.5,5.385e-13
288.0,1.77e-12
288.5,5.06e-12
289.0,1.307e-11
289.5,3.877e-11
290.0,1.069e-10
290.5,2.178e-10
291.0,4.679e-10
291.5,1.347e-09
292.0,2.756e-09
292.5,3.835e-09
293.0,8.145e-09
293.5,1.959e-08
294.0,3.054e-08
294.5,3.805e-08
295.0,6.401e-08
295.5,1.087e-07
296.0,2.043e-07
296.5,2.777e-07
297.0,3.664e-07
297.5,9.44e-07
298.0,1.433e-06
298.5,1.397e-06
299.0,2.981e-06
299.5,4.655e-06
300.0,4.934e-06
300.5,6.865e-06
301.0,1.16e-05
301.5,1.731e-05
302.0,1.428e-05
302.5,2.736e-05
303.0,4.79e-05
303.5,5.988e-05
304.0,5.726e-05
304.5,8.988e-05
305.0,0.0001474
305.5,0.000178
306.0,0.0001759
306.5,0.000227
307.0,0.0003662
307.5,0.0005298
308.0,0.0005672
308.5,0.0006993
309.0,0.0007902
309.5,0.001098
310.0,0.001207
310.5,0.002043
311.0,0.00276
311.5,0.00275
312.0,0.003225
312.5,0.004363
313.0,0.005002
313.5,0.00461
314.0,0.006547
314.5,0.006879
315.0,0.009314
315.5,0.00717
316.0,0.007188
316.5,0.01163
317.0,0.0144
317.5,0.01448
318.0,0.01225
318.5,0.01778
319.0,0.02284
319.5,0.01638
320.0,0.01941
320.5,0.02851
321.0,0.02933
321.5,0.02852
322.0,0.02602
322.5,0.02281
323.0,0.02513
323.5,0.03561
324.0,0.04233
324.5,0.04099
325.0,0.03215
325.5,0.04489
326.0,0.05912
326.5,0.06279
327.0,0.06122
327.5,0.0575
328.0,0.04725
328.5,0.05468
329.0,0.07056
329.5,0.08193
330.0,0.08114
330.5,0.06128
331.0,0.0612
331.5,0.06494
332.0,0.07464
332.5,0.07592
333.0,0.07448
333.5,0.0644
334.0,0.06547
334.5,0.07957
335.0,0.07705
335.5,0.09124
336.0,0.06314
336.5,0.07186
337.0,0.05769
337.5,0.07118
338.0,0.07253
338.5,0.08534
339.0,0.08472
339.5,0.08137
340.0,0.09393
340.5,0.08504
341.0,0.08423
341.5,0.07776
342.0,0.09309
342.5,0.08725
343.0,0.09565
343.5,0.08988
344.0,0.06541
344.5,0.06687
345.0,0.08906
345.5,0.09122
346.0,0.0777
346.5,0.08812
347.0,0.09435
347.5,0.07624
348.0,0.08726
348.5,0.08743
349.0,0.08122
349.5,0.08043
350.0,0.09957
350.5,0.1051
351.0,0.09371
351.5,0.09071
352.0,0.09775
352.5,0.07649
353.0,0.09654
353.5,0.1034
354.0,0.1074
354.5,0.109
355.0,0.1086
355.5,0.09822
356.0,0.1029
356.5,0.08788
357.0,0.07262
357.5,0.08895
358.0,0.07055
358.5,0.06032
359.0,0.08437
359.5,0.1074
360.0,0.114
360.5,0.09118
361.0,0.08323
361.5,0.09597
362.0,0.0831
362.5,0.1152
363.0,0.1035
363.5,0.09545
364.0,0.1168
364.5,0.09993
365.0,0.1018
365.5,0.1279
366.0,0.1357
366.5,0.1276
367.0,0.1243
367.5,0.1291
368.0,0.1131
368.5,0.1142
369.0,0.1234
369.5,0.1316
370.0,0.1405
370.5,0.1091
371.0,0.1167
371.5,0.1461
372.0,0.09702
372.5,0.1164
373.0,0.1185
373.5,0.0772
374.0,0.1123
374.5,0.09305
375.0,0.09052
375.5,0.1352
376.0,0.1122
376.5,0.1163
377.0,0.1233
377.5,0.1443
378.0,0.1565
378.5,0.148
379.0,0.1222
379.5,0.1117
380.0,0.1162
380.5,0.1409
381.0,0.1413
381.5,0.1122
382.0,0.09976
382.5,0.08515
383.0,0.07893
383.5,0.0761
384.0,0.08402
384.5,0.1237
385.0,0.1228
385.5,0.1145
386.0,0.09814
386.5,0.1291
387.0,0.1073
387.5,0.1206
388.0,0.1115
388.5,0.1103
389.0,0.1192
389.5,0.1445
390.0,0.1451
390.5,0.1337
391.0,0.1575
391.5,0.1608
392.0,0.1355
392.5,0.1215
393.0,0.06768
393.5,0.04925
394.0,0.1003
394.5,0.1277
395.0,0.1559
395.5,0.1585
396.0,0.1375
396.5,0.08051
397.0,0.06049
397.5,0.1231
398.0,0.1725
398.5,0.1784
399.0,0.1935
399.5,0.1931
400.0,0.2006
401.0,0.2009
402.0,0.2125
403.0,0.2023
404.0,0.1995
405.0,0.1998
406.0,0.197
407.0,0.1943
408.0,0.202
409.0,0.2166
410.0,0.1897
411.0,0.2059
412.0,0.2217
413.0,0.2164
414.0,0.2196
415.0,0.2206
416.0,0.225
417.0,0.2198
418.0,0.216
419.0,0.2193
420.0,0.2187
421.0,0.2292
422.0,0.2182
423.0,0.2134
424.0,0.226
425.0,0.226
426.0,0.2207
427.0,0.217
428.0,0.2116
429.0,0.2011
430.0,0.1763
431.0,0.1748
432.0,0.2262
433.0,0.2278
434.0,0.2118
435.0,0.2214
436.0,0.2501
437.0,0.2474
438.0,0.2257
439.0,0.233
440.0,0.2409
441.0,0.2501
442.0,0.2685
443.0,0.2614
444.0,0.2677
445.0,0.2621
446.0,0.251
447.0,0.2722
448.0,0.2762
449.0,0.2782
450.0,0.2864
451.0,0.2974
452.0,0.287
453.0,0.2704
454.0,0.2829
455.0,0.2848
456.0,0.2919
457.0,0.2969
458.0,0.2864
459.0,0.2851
460.0,0.2857
461.0,0.2925
462.0,0.2954
463.0,0.2935
464.0,0.2897
465.0,0.287
466.0,0.2905
467.0,0.285
468.0,0.2885
469.0,0.29
470.0,0.2807
471.0,0.2806
472.0,0.2958
473.0,0.292
474.0,0.2919
475.0,0.2938
476.0,0.2841
477.0,0.2842
478.0,0.2923
479.0,0.291
480.0,0.292
481.0,0.2982
482.0,0.3006
483.0,0.298
484.0,0.2925
485.0,0.2794
486.0,0.245
487.0,0.2574
488.0,0.2824
489.0,0.2831
490.0,0.2983
491.0,0.2936
492.0,0.2774
493.0,0.2867
494.0,0.2898
495.0,0.2925
496.0,0.2944
497.0,0.2989
498.0,0.2848
499.0,0.288
500.0,0.2791
501.0,0.2733
502.0,0.2683
503.0,0.2781
504.0,0.2677
505.0,0.28
506.0,0.2891
507.0,0.2753
508.0,0.2678
509.0,0.2762
510.0,0.2755
511.0,0.2836
512.0,0.2871
513.0,0.2718
514.0,0.2703
515.0,0.2676
516.0,0.2667
517.0,0.2372
518.0,0.2493
519.0,0.2614
520.0,0.2707
521.0,0.2732
522.0,0.2731
523.0,0.2679
524.0,0.2768
525.0,0.279
526.0,0.2662
527.0,0.2501
528.0,0.2639
529.0,0.2776
530.0,0.2732
531.0,0.2769
532.0,0.2672
533.0,0.2594
534.0,0.2674
535.0,0.2737
536.0,0.2766
537.0,0.266
538.0,0.271
539.0,0.2686
540.0,0.2573
541.0,0.2579
542.0,0.2654
543.0,0.2634
544.0,0.267
545.0,0.2664
546.0,0.2668
547.0,0.2674
548.0,0.2646
549.0,0.2657
550.0,0.2689
551.0,0.2658
552.0,0.2676
553.0,0.2627
554.0,0.2688
555.0,0.2691
556.0,0.2655
557.0,0.2568
558.0,0.2543
559.0,0.249
560.0,0.2517
561.0,0.2543
562.0,0.2518
563.0,0.2579
564.0,0.2502
565.0,0.2475
566.0,0.2433
567.0,0.2471
568.0,0.243
569.0,0.2339
570.0,0.2342
571.0,0.2336
572.0,0.2368
573.0,0.2389
574.0,0.2376
575.0,0.2323
576.0,0.2302
577.0,0.2331
578.0,0.2306
579.0,0.2332
580.0,0.2403
581.0,0.2435
582.0,0.2499
583.0,0.252
584.0,0.2552
585.0,0.2496
586.0,0.2445
587.0,0.2488
588.0,0.2385
589.0,0.2031
590.0,0.2129
591.0,0.2303
592.0,0.2245
593.0,0.2316
594.0,0.2285
595.0,0.2194
596.0,0.2351
597.0,0.2306
598.0,0.2322
599.0,0.2333
600.0,0.2353
601.0,0.2347
602.0,0.2334
603.0,0.238
604.0,0.2423
605.0,0.2415
606.0,0.2413
607.0,0.2445
608.0,0.2426
609.0,0.2438
610.0,0.2428
611.0,0.2446
612.0,0.2444
613.0,0.2418
614.0,0.2392
615.0,0.2451
616.0,0.2376
617.0,0.2376
618.0,0.2471
619.0,0.2449
620.0,0.2465
621.0,0.2462
622.0,0.243
623.0,0.239
624.0,0.2353
625.0,0.2346
626.0,0.2378
627.0,0.2387
628.0,0.2025
629.0,0.2258
630.0,0.2198
631.0,0.2318
632.0,0.2304
633.0,0.2403
634.0,0.2403
635.0,0.2453
636.0,0.2434
637.0,0.2484
638.0,0.2525
639.0,0.2506
640.0,0.2492
641.0,0.2499
642.0,0.2497
643.0,0.2532
644.0,0.2533
645.0,0.2532
646.0,0.2448
647.0,0.2359
648.0,0.237
649.0,0.2312
650.0,0.24
651.0,0.2517
652.0,0.2342
653.0,0.249
654.0,0.2467
655.0,0.2339
656.0,0.2098
657.0,0.216
658.0,0.2446
659.0,0.2473
660.0,0.2491
661.0,0.2514
662.0,0.2507
663.0,0.2462
664.0,0.2511
665.0,0.2528
666.0,0.2536
667.0,0.2542
668.0,0.2552
669.0,0.2597
670.0,0.259
671.0,0.2594
672.0,0.2575
673.0,0.2618
674.0,0.2612
675.0,0.2592
676.0,0.2613
677.0,0.2591
678.0,0.2601
679.0,0.2562
680.0,0.2585
681.0,0.2569
682.0,0.2566
683.0,0.2562
684.0,0.2549
685.0,0.2575
686.0,0.2555
687.0,0.09115
688.0,0.1363
689.0,0.1379
690.0,0.1568
691.0,0.1803
692.0,0.2003
693.0,0.1984
694.0,0.2
695.0,0.2192
696.0,0.2204
697.0,0.246
698.0,0.2419
699.0,0.2275
700.0,0.2243
701.0,0.2181
702.0,0.2231
703.0,0.2249
704.0,0.2373
705.0,0.2374
706.0,0.2391
707.0,0.2402
708.0,0.2404
709.0,0.2446
710.0,0.2424
711.0,0.2436
712.0,0.2447
713.0,0.2404
714.0,0.242
715.0,0.2306
716.0,0.2299
717.0,0.1691
718.0,0.1538
719.0,0.1386
720.0,0.1418
721.0,0.1727
722.0,0.2157
723.0,0.1922
724.0,0.162
725.0,0.1564
726.0,0.1643
727.0,0.1741
728.0,0.1548
729.0,0.1706
730.0,0.1772
731.0,0.1682
732.0,0.1912
733.0,0.2119
734.0,0.2206
735.0,0.2141
736.0,0.2129
737.0,0.2141
738.0,0.2262
739.0,0.2222
740.0,0.2305
741.0,0.2297
742.0,0.2317
743.0,0.2381
744.0,0.2385
745.0,0.2395
746.0,0.2406
747.0,0.2414
748.0,0.241
749.0,0.2383
750.0,0.2383
751.0,0.2359
752.0,0.2371
753.0,0.2384
754.0,0.2389
755.0,0.2375
756.0,0.2376
757.0,0.2379
758.0,0.2347
759.0,0.2237
760.0,0.00417
761.0,0.001641
762.0,0.0427
763.0,0.008953
764.0,0.02143
765.0,0.04249
766.0,0.07488
767.0,0.1284
768.0,0.1847
769.0,0.1981
770.0,0.2161
771.0,0.2231
772.0,0.2252
773.0,0.2272
774.0,0.2265
775.0,0.2251
776.0,0.2279
777.0,0.225
778.0,0.2236
779.0,0.2238
780.0,0.2227
781.0,0.223
782.0,0.2245
783.0,0.2207
784.0,0.222
785.0,0.2199
786.0,0.2219
787.0,0.2134
788.0,0.2087
789.0,0.2088
790.0,0.1976
791.0,0.2051
792.0,0.2045
793.0,0.2007
794.0,0.2098
795.0,0.2117
796.0,0.1969
797.0,0.1962
798.0,0.2104
799.0,0.2077
800.0,0.2021
801.0,0.1993
802.0,0.1985
803.0,0.1958
804.0,0.1971
805.0,0.199
806.0,0.209
807.0,0.2056
808.0,0.206
809.0,0.1988
810.0,0.1954
811.0,0.1925
812.0,0.18
813.0,0.1749
814.0,0.1407
815.0,0.1412
816.0,0.1291
817.0,0.1318
818.0,0.1239
819.0,0.1494
820.0,0.1373
821.0,0.1784
822.0,0.1703
823.0,0.09054
824.0,0.1582
825.0,0.1758
826.0,0.1627
827.0,0.178
828.0,0.1333
829.0,0.1631
830.0,0.1601
831.0,0.1603
832.0,0.1522
833.0,0.1696
834.0,0.1589
835.0,0.188
836.0,0.17
837.0,0.1884
838.0,0.1777
839.0,0.1854
840.0,0.1907
841.0,0.1859
842.0,0.1895
843.0,0.193
844.0,0.1885
845.0,0.1972
846.0,0.197
847.0,0.1944
848.0,0.1916
849.0,0.1862
850.0,0.1785
851.0,0.1874
852.0,0.1869
853.0,0.1811
854.0,0.1553
855.0,0.1722
856.0,0.1875
857.0,0.1927
858.0,0.1908
859.0,0.1917
860.0,0.1926
861.0,0.1914
862.0,0.1946
863.0,0.1992
864.0,0.1894
865.0,0.1878
866.0,0.1689
867.0,0.1763
868.0,0.1919
869.0,0.188
870.0,0.1934
871.0,0.1908
872.0,0.1902
873.0,0.1898
874.0,0.1876
875.0,0.1837
876.0,0.1855
877.0,0.1875
878.0,0.1893
879.0,0.1865
880.0,0.1825
881.0,0.179
882.0,0.1825
883.0,0.1839
884.0,0.1828
885.0,0.1841
886.0,0.1729
887.0,0.1768
888.0,0.1783
889.0,0.1825
890.0,0.1781
891.0,0.1792
892.0,0.1705
893.0,0.1621
894.0,0.149
895.0,0.132
896.0,0.1224
897.0,0.09609
898.0,0.1086
899.0,0.07312
900.0,0.1172
901.0,0.07669
902.0,0.1019
903.0,0.09831
904.0,0.1472
905.0,0.1395
906.0,0.1277
907.0,0.08812
908.0,0.09361
909.0,0.1063
910.0,0.08389
911.0,0.09855
912.0,0.1022
913.0,0.0846
914.0,0.08622
915.0,0.0919
916.0,0.07684
917.0,0.1074
918.0,0.07769
919.0,0.1132
920.0,0.1239
921.0,0.1274
922.0,0.1062
923.0,0.1242
924.0,0.1058
925.0,0.1042
926.0,0.1035
927.0,0.1231
928.0,0.06892
929.0,0.05784
930.0,0.03708
931.0,0.03444
932.0,0.01823
933.0,0.01256
934.0,0.003315
935.0,0.01441
936.0,0.006258
937.0,0.006359
938.0,0.00865
939.0,0.03313
940.0,0.04562
941.0,0.02769
942.0,0.03492
943.0,0.01834
944.0,0.0242
945.0,0.03007
946.0,0.009567
947.0,0.02853
948.0,0.0205
949.0,0.04512
950.0,0.005427
951.0,0.04452
952.0,0.0168
953.0,0.0263
954.0,0.03788
955.0,0.02738
956.0,0.03465
957.0,0.0167
958.0,0.05429
959.0,0.03471
960.0,0.03912
961.0,0.05065
962.0,0.0479
963.0,0.06162
964.0,0.05477
965.0,0.06043
966.0,0.06058
967.0,0.05906
968.0,0.1078
969.0,0.1071
970.0,0.09656
971.0,0.1235
972.0,0.1148
973.0,0.08709
974.0,0.08232
975.0,0.08865
976.0,0.07681
977.0,0.1038
978.0,0.09174
979.0,0.09922
980.0,0.09196
981.0,0.1231
982.0,0.113
983.0,0.106
984.0,0.1335
985.0,0.1119
986.0,0.1402
987.0,0.1337
988.0,0.1339
989.0,0.1428
990.0,0.1328
991.0,0.1427
992.0,0.144
993.0,0.1367
994.0,0.1446
995.0,0.1452
996.0,0.1437
997.0,0.1443
998.0,0.1433
999.0,0.1431
1000.0,0.1408
1001.0,0.144
1002.0,0.1347
1003.0,0.1411
1004.0,0.1362
1005.0,0.1332
1006.0,0.1375
1007.0,0.1408
1008.0,0.1392
1009.0,0.1374
1010.0,0.1363
1011.0,0.1402
1012.0,0.1381
1013.0,0.1402
1014.0,0.1392
1015.0,0.1382
1016.0,0.1374
1017.0,0.1375
1018.0,0.1377
1019.0,0.1327
1020.0,0.1367
1021.0,0.1368
1022.0,0.135
1023.0,0.1364
1024.0,0.1326
1025.0,0.1369
1026.0,0.1358
1027.0,0.1356
1028.0,0.1352
1029.0,0.1333
1030.0,0.135
1031.0,0.1342
1032.0,0.134
1033.0,0.132
1034.0,0.132
1035.0,0.1324
1036.0,0.1329
1037.0,0.1308
1038.0,0.1313
1039.0,0.1311
1040.0,0.1305
1041.0,0.1309
1042.0,0.1299
1043.0,0.1294
1044.0,0.1297
1045.0,0.1278
1046.0,0.1263
1047.0,0.1273
1048.0,0.1278
1049.0,0.1272
1050.0,0.1264
1051.0,0.126
1052.0,0.1253
1053.0,0.124
1054.0,0.124
1055.0,0.1238
1056.0,0.123
1057.0,0.1223
1058.0,0.119
1059.0,0.1188
1060.0,0.1184
1061.0,0.1181
1062.0,0.1184
1063.0,0.117
1064.0,0.1185
1065.0,0.1168
1066.0,0.1151
1067.0,0.1164
1068.0,0.1133
1069.0,0.1103
1070.0,0.1136
1071.0,0.1171
1072.0,0.1144
1073.0,0.113
1074.0,0.118
1075.0,0.1078
1076.0,0.1176
1077.0,0.1132
1078.0,0.1097
1079.0,0.1167
1080.0,0.1113
1081.0,0.1054
1082.0,0.111
1083.0,0.1125
1084.0,0.1043
1085.0,0.1119
1086.0,0.09636
1087.0,0.1032
1088.0,0.1118
1089.0,0.1034
1090.0,0.09935
1091.0,0.1102
1092.0,0.1105
1093.0,0.08266
1094.0,0.09972
1095.0,0.08606
1096.0,0.07966
1097.0,0.1081
1098.0,0.07651
1099.0,0.0812
1100.0,0.07175
1101.0,0.07438
1102.0,0.06797
1103.0,0.0652
1104.0,0.06573
1105.0,0.07824
1106.0,0.04485
1107.0,0.07179
1108.0,0.05181
1109.0,0.05273
1110.0,0.06843
1111.0,0.03434
1112.0,0.05279
1113.0,0.02324
1114.0,0.02603
1115.0,0.0205
1116.0,0.01209
1117.0,0.001892
1118.0,0.01378
1119.0,0.004065
1120.0,0.004657
1121.0,0.007252
1122.0,0.001475
1123.0,0.004265
1124.0,0.003567
1125.0,0.005316
1126.0,0.0005653
1127.0,0.006125
1128.0,0.00195
1129.0,0.002166
1130.0,0.001358
1131.0,0.01845
1132.0,0.01288
1133.0,0.004859
1134.0,0.0004263
1135.0,0.0002057
1136.0,0.003163
1137.0,0.0168
1138.0,0.01086
1139.0,0.02606
1140.0,0.0178
1141.0,0.01048
1142.0,0.01355
1143.0,0.02401
1144.0,0.004653
1145.0,0.00458
1146.0,0.004921
1147.0,0.0006085
1148.0,0.01971
1149.0,0.0132
1150.0,0.005988
1151.0,0.01083
1152.0,0.0163
1153.0,0.01852
1154.0,0.00501
1155.0,0.02715
1156.0,0.02224
1157.0,0.03062
1158.0,0.03012
1159.0,0.0343
1160.0,0.02844
1161.0,0.04186
1162.0,0.04115
1163.0,0.07006
1164.0,0.05504
1165.0,0.04704
1166.0,0.05111
1167.0,0.05802
1168.0,0.05792
1169.0,0.06033
1170.0,0.07026
1171.0,0.06851
1172.0,0.07325
1173.0,0.0702
1174.0,0.04053
1175.0,0.072
1176.0,0.08615
1177.0,0.0778
1178.0,0.0507
1179.0,0.08666
1180.0,0.06988
1181.0,0.0723
1182.0,0.04069
1183.0,0.0726
1184.0,0.06473
1185.0,0.05951
1186.0,0.08068
1187.0,0.07343
1188.0,0.03941
1189.0,0.068
1190.0,0.07986
1191.0,0.06881
1192.0,0.08168
1193.0,0.07581
1194.0,0.0798
1195.0,0.07072
1196.0,0.0657
1197.0,0.08143
1198.0,0.07302
1199.0,0.05273
1200.0,0.07502
1201.0,0.06861
1202.0,0.0718
1203.0,0.06862
1204.0,0.05661
1205.0,0.0758
1206.0,0.08825
1207.0,0.07002
1208.0,0.07182
1209.0,0.07347
1210.0,0.07888
1211.0,0.07204
1212.0,0.06523
1213.0,0.08234
1214.0,0.06873
1215.0,0.06716
1216.0,0.08297
1217.0,0.079
1218.0,0.08209
1219.0,0.07978
1220.0,0.08239
1221.0,0.08471
1222.0,0.08164
1223.0,0.07996
1224.0,0.07715
1225.0,0.08353
1226.0,0.08585
1227.0,0.07369
1228.0,0.08724
1229.0,0.08592
1230.0,0.08342
1231.0,0.08911
1232.0,0.08845
1233.0,0.08095
1234.0,0.09016
1235.0,0.08879
1236.0,0.09007
1237.0,0.08716
1238.0,0.08979
1239.0,0.08859
1240.0,0.08919
1241.0,0.08747
1242.0,0.08844
1243.0,0.0878
1244.0,0.088
1245.0,0.08862
1246.0,0.08816
1247.0,0.08744
1248.0,0.0867
1249.0,0.08757
1250.0,0.08663
1251.0,0.08468
1252.0,0.08576
1253.0,0.08315
1254.0,0.08093
1255.0,0.08518
1256.0,0.07929
1257.0,0.07815
1258.0,0.08237
1259.0,0.07413
1260.0,0.07515
1261.0,0.06479
1262.0,0.0598
1263.0,0.05977
1264.0,0.04876
1265.0,0.05949
1266.0,0.05335
1267.0,0.05698
1268.0,0.04984
1269.0,0.01326
1270.0,0.0557
1271.0,0.06548
1272.0,0.0662
1273.0,0.06481
1274.0,0.06599
1275.0,0.068
1276.0,0.06992
1277.0,0.07212
1278.0,0.07587
1279.0,0.07527
1280.0,0.07432
1281.0,0.07213
1282.0,0.07149
1283.0,0.07658
1284.0,0.07808
1285.0,0.07895
1286.0,0.08108
1287.0,0.07784
1288.0,0.07853
1289.0,0.0721
1290.0,0.07796
1291.0,0.0798
1292.0,0.06822
1293.0,0.07674
1294.0,0.07595
1295.0,0.07301
1296.0,0.0659
1297.0,0.05976
1298.0,0.07022
1299.0,0.07736
1300.0,0.05603
1301.0,0.05905
1302.0,0.07038
1303.0,0.05596
1304.0,0.03993
1305.0,0.06842
1306.0,0.06714
1307.0,0.04353
1308.0,0.05741
1309.0,0.06485
1310.0,0.04173
1311.0,0.05307
1312.0,0.05095
1313.0,0.04732
1314.0,0.03926
1315.0,0.03732
1316.0,0.05068
1317.0,0.04657
1318.0,0.05424
1319.0,0.03314
1320.0,0.03349
1321.0,0.04256
1322.0,0.0411
1323.0,0.02393
1324.0,0.03298
1325.0,0.04835
1326.0,0.03718
1327.0,0.03404
1328.0,0.02666
1329.0,0.01456
1330.0,0.02217
1331.0,0.008449
1332.0,0.00973
1333.0,0.01447
1334.0,0.01605
1335.0,0.02286
1336.0,0.01491
1337.0,0.01292
1338.0,0.01352
1339.0,0.01391
1340.0,0.01503
1341.0,0.01104
1342.0,0.01219
1343.0,0.004307
1344.0,0.002914
1345.0,0.003662
1346.0,0.0006681
1347.0,0.0005397
1348.0,8.264e-06
1349.0,3.574e-05
1350.0,4.163e-05
1351.0,4.542e-06
1352.0,9.684e-07
1353.0,4.889e-08
1354.0,1.698e-07
1355.0,1.35e-09
1356.0,2.368e-08
1357.0,3.597e-08
1358.0,1.585e-09
1359.0,1.997e-10
1360.0,7.216e-10
1361.0,8.071e-13
1362.0,2.208e-15
1363.0,9.702e-10
1364.0,4.006e-10
1365.0,7.709e-16
1366.0,4.205e-09
1367.0,1.716e-09
1368.0,5.952e-18
1369.0,1.476e-10
1370.0,7.269e-11
1371.0,4.12e-12
1372.0,9.309e-10
1373.0,1.876e-08
1374.0,8.719e-08
1375.0,1.579e-07
1376.0,1.437e-07
1377.0,6.547e-08
1378.0,6.372e-07
1379.0,2.747e-08
1380.0,3.892e-08
1381.0,1.014e-09
1382.0,8.158e-10
1383.0,1.22e-11
1384.0,1.599e-10
1385.0,7.649e-10
1386.0,7.193e-10
1387.0,8.701e-08
1388.0,1.716e-09
1389.0,2.951e-07
1390.0,2.528e-07
1391.0,1.682e-07
1392.0,1.093e-08
1393.0,5.822e-08
1394.0,2.968e-08
1395.0,2.175e-10
1396.0,1.051e-12
1397.0,2.281e-08
1398.0,6.741e-07
1399.0,4.272e-07
1400.0,4.493e-13
1401.0,1.864e-12
1402.0,1.533e-06
1403.0,1.669e-06
1404.0,4.804e-07
1405.0,1.03e-10
1406.0,1.179e-06
1407.0,1.246e-07
1408.0,9.659e-07
1409.0,3.148e-07
1410.0,2.627e-07
1411.0,1.477e-06
1412.0,2.369e-06
