interpolation:linear
wavelength,value
280.0,7.212000000000001e-20
280.5,1.981e-18
281.0,2.544e-19
281.5,4.885e-19
282.0,2.257e-18
282.5,6.493e-18
283.0,2.183e-17
283.5,3.613e-17
284.0,5.705e-16
284.5,1.609e-15
285.0,3.517e-15
285.5,2.245e-14
286.0,9.712e-14
286.5,4.814e-13
287.0,1.457e-12
287.5,5.897e-12
288.0,1.757e-11
288.5,7.024e-11
289.0,2.379e-10
289.5,9.02e-10
290.0,2.977e-09
290.5,6.986e-09
291.0,1.759e-08
291.5,6.115e-08
292.0,1.595e-07
292.5,2.494e-07
293.0,6.134e-07
293.5,1.804e-06
294.0,3.261e-06
294.5,4.216e-06
295.0,8.124e-06
295.5,1.91e-05
296.0,3.59e-05
296.5,4.889e-05
297.0,6.469e-05
297.5,0.0001676
298.0,0.0002562
298.5,0.0002516
299.0,0.0005418
299.5,0.0008612
300.0,0.0009248
300.5,0.001306
301.0,0.002266
301.5,0.003475
302.0,0.002915
302.5,0.005468
303.0,0.009315
303.5,0.01134
304.0,0.01041
304.5,0.01461
305.0,0.02034
305.5,0.0221
306.0,0.02096
306.5,0.02523
307.0,0.03479
307.5,0.04316
308.0,0.04508
308.5,0.05147
309.0,0.04946
309.5,0.054
310.0,0.05306
310.5,0.085
311.0,0.1047
311.5,0.1003
312.0,0.09636
312.5,0.1142
313.0,0.1221
313.5,0.1201
314.0,0.1454
314.5,0.1235
315.0,0.1611
315.5,0.1375
316.0,0.116
316.5,0.1617
317.0,0.2008
317.5,0.2107
318.0,0.161
318.5,0.1922
319.0,0.2237
319.5,0.1881
320.0,0.2284
320.5,0.2746
321.0,0.2359
321.5,0.2253
322.0,0.2495
322.5,0.2166
323.0,0.2103
323.5,0.2523
324.0,0.2933
324.5,0.3008
325.0,0.2633
325.5,0.3318
326.0,0.4031
326.5,0.3982
327.0,0.3987
327.5,0.3875
328.0,0.3512
328.5,0.3612
329.0,0.425
329.5,0.4799
330.0,0.4861
330.5,0.3941
331.0,0.4033
331.5,0.4058
332.0,0.4321
332.5,0.4247
333.0,0.425
333.5,0.3886
334.0,0.3987
334.5,0.4546
335.0,0.4242
335.5,0.4954
336.0,0.3427
336.5,0.4026
337.0,0.3319
337.5,0.4135
338.0,0.3998
338.5,0.4612
339.0,0.4563
339.5,0.4389
340.0,0.5159
340.5,0.4645
341.0,0.4531
341.5,0.4158
342.0,0.4968
342.5,0.4647
343.0,0.5111
343.5,0.4813
344.0,0.3555
344.5,0.3592
345.0,0.4751
345.5,0.4848
346.0,0.4119
346.5,0.4663
347.0,0.5006
347.5,0.4047
348.0,0.4612
348.5,0.4609
349.0,0.4275
349.5,0.4232
350.0,0.5233
350.5,0.5519
351.0,0.4931
351.5,0.4793
352.0,0.5146
352.5,0.4014
353.0,0.5055
353.5,0.5404
354.0,0.561
354.5,0.5689
355.0,0.567
355.5,0.5121
356.0,0.5357
356.5,0.4574
357.0,0.3779
357.5,0.4626
358.0,0.3666
358.5,0.3133
359.0,0.4382
359.5,0.5584
360.0,0.5919
360.5,0.473
361.0,0.4312
361.5,0.4963
362.0,0.429
362.5,0.5936
363.0,0.5331
363.5,0.4909
364.0,0.6003
364.5,0.5131
365.0,0.5225
365.5,0.6557
366.0,0.6946
366.5,0.6525
367.0,0.6354
367.5,0.6594
368.0,0.577
368.5,0.5822
369.0,0.6286
369.5,0.67
370.0,0.7142
370.5,0.5542
371.0,0.5921
371.5,0.7408
372.0,0.4917
372.5,0.5895
373.0,0.5996
373.5,0.3901
374.0,0.5667
374.5,0.4693
375.0,0.4562
375.5,0.6811
376.0,0.5646
376.5,0.5851
377.0,0.6194
377.5,0.7246
378.0,0.7855
378.5,0.7424
379.0,0.6127
379.5,0.5597
380.0,0.5819
380.5,0.7048
381.0,0.7062
381.5,0.5597
382.0,0.497
382.5,0.4236
383.0,0.3921
383.5,0.3777
384.0,0.4166
384.5,0.6127
385.0,0.6076
385.5,0.5658
386.0,0.4846
386.5,0.6364
387.0,0.5289
387.5,0.594
388.0,0.5484
388.5,0.5421
389.0,0.5851
389.5,0.7087
390.0,0.7112
390.5,0.6545
391.0,0.7703
391.5,0.7857
392.0,0.6618
392.5,0.5924
393.0,0.3296
393.5,0.2396
394.0,0.4875
394.5,0.6198
395.0,0.7563
395.5,0.7683
396.0,0.6661
396.5,0.3893
397.0,0.2922
397.5,0.5942
398.0,0.8321
398.5,0.8601
399.0,0.9311
399.5,0.9281
400.0,0.9638
401.0,0.9795
402.0,1.033
403.0,0.9813
404.0,0.9662
405.0,0.966
406.0,0.9501
407.0,0.9345
408.0,0.9711
409.0,1.039
410.0,0.9079
411.0,0.9833
412.0,1.056
413.0,1.03
414.0,1.042
415.0,1.045
416.0,1.063
417.0,1.036
418.0,1.017
419.0,1.03
420.0,1.026
421.0,1.073
422.0,1.02
423.0,0.996
424.0,1.053
425.0,1.051
426.0,1.024
427.0,1.004
428.0,0.9785
429.0,0.9265
430.0,0.8107
431.0,0.8036
432.0,1.037
433.0,1.043
434.0,0.9683
435.0,1.011
436.0,1.139
437.0,1.123
438.0,1.023
439.0,1.058
440.0,1.092
441.0,1.131
442.0,1.213
443.0,1.181
444.0,1.207
445.0,1.181
446.0,1.126
447.0,1.217
448.0,1.236
449.0,1.241
450.0,1.275
451.0,1.322
452.0,1.274
453.0,1.198
454.0,1.25
455.0,1.258
456.0,1.287
457.0,1.309
458.0,1.265
459.0,1.258
460.0,1.261
461.0,1.29
462.0,1.3
463.0,1.291
464.0,1.269
465.0,1.252
466.0,1.264
467.0,1.241
468.0,1.256
469.0,1.262
470.0,1.222
471.0,1.22
472.0,1.286
473.0,1.269
474.0,1.272
475.0,1.283
476.0,1.245
477.0,1.249
478.0,1.284
479.0,1.275
480.0,1.277
481.0,1.301
482.0,1.307
483.0,1.29
484.0,1.264
485.0,1.204
486.0,1.052
487.0,1.102
488.0,1.209
489.0,1.213
490.0,1.276
491.0,1.253
492.0,1.184
493.0,1.222
494.0,1.234
495.0,1.245
496.0,1.252
497.0,1.272
498.0,1.212
499.0,1.228
500.0,1.193
501.0,1.171
502.0,1.155
503.0,1.203
504.0,1.175
505.0,1.215
506.0,1.254
507.0,1.194
508.0,1.156
509.0,1.188
510.0,1.181
511.0,1.212
512.0,1.225
513.0,1.159
514.0,1.151
515.0,1.14
516.0,1.137
517.0,1.01
518.0,1.062
519.0,1.114
520.0,1.154
521.0,1.165
522.0,1.167
523.0,1.146
524.0,1.187
525.0,1.202
526.0,1.148
527.0,1.082
528.0,1.145
529.0,1.207
530.0,1.19
531.0,1.208
532.0,1.167
533.0,1.132
534.0,1.166
535.0,1.191
536.0,1.202
537.0,1.154
538.0,1.174
539.0,1.164
540.0,1.116
541.0,1.124
542.0,1.16
543.0,1.147
544.0,1.168
545.0,1.164
546.0,1.17
547.0,1.169
548.0,1.154
549.0,1.158
550.0,1.171
551.0,1.157
552.0,1.165
553.0,1.144
554.0,1.172
555.0,1.174
556.0,1.159
557.0,1.123
558.0,1.115
559.0,1.095
560.0,1.109
561.0,1.123
562.0,1.116
563.0,1.146
564.0,1.116
565.0,1.106
566.0,1.09
567.0,1.111
568.0,1.103
569.0,1.079
570.0,1.078
571.0,1.071
572.0,1.098
573.0,1.11
574.0,1.107
575.0,1.087
576.0,1.077
577.0,1.088
578.0,1.071
579.0,1.075
580.0,1.093
581.0,1.098
582.0,1.118
583.0,1.12
584.0,1.129
585.0,1.101
586.0,1.078
587.0,1.102
588.0,1.078
589.0,0.9609
590.0,1.004
591.0,1.06
592.0,1.048
593.0,1.061
594.0,1.055
595.0,1.031
596.0,1.067
597.0,1.056
598.0,1.052
599.0,1.053
600.0,1.053
601.0,1.044
602.0,1.037
603.0,1.053
604.0,1.071
605.0,1.065
606.0,1.06
607.0,1.07
608.0,1.058
609.0,1.059
610.0,1.051
611.0,1.056
612.0,1.053
613.0,1.04
614.0,1.025
615.0,1.047
616.0,1.012
617.0,1.01
618.0,1.049
619.0,1.038
620.0,1.044
621.0,1.046
622.0,1.034
623.0,1.019
624.0,1.001
625.0,0.9984
626.0,1.013
627.0,1.026
628.0,0.9692
629.0,1.005
630.0,0.9825
631.0,1.001
632.0,0.9881
633.0,1.017
634.0,1.005
635.0,1.021
636.0,1.006
637.0,1.022
638.0,1.031
639.0,1.019
640.0,1.009
641.0,1.008
642.0,1.003
643.0,1.016
644.0,1.012
645.0,1.014
646.0,0.9921
647.0,0.9834
648.0,0.9847
649.0,0.9658
650.0,0.9665
651.0,1.008
652.0,0.97
653.0,0.9941
654.0,0.9826
655.0,0.9482
656.0,0.8388
657.0,0.8613
658.0,0.964
659.0,0.9703
660.0,0.9741
661.0,0.9809
662.0,0.9836
663.0,0.9639
664.0,0.9742
665.0,0.9741
666.0,0.9745
667.0,0.9732
668.0,0.9732
669.0,0.988
670.0,0.9835
671.0,0.9831
672.0,0.9745
673.0,0.989
674.0,0.9851
675.0,0.976
676.0,0.9825
677.0,0.9727
678.0,0.9753
679.0,0.9594
680.0,0.967
681.0,0.9606
682.0,0.9593
683.0,0.9574
684.0,0.9527
685.0,0.9607
686.0,0.9551
687.0,0.684
688.0,0.7775
689.0,0.7795
690.0,0.8096
691.0,0.8432
692.0,0.8668
693.0,0.8605
694.0,0.8534
695.0,0.8827
696.0,0.8839
697.0,0.9304
698.0,0.9161
699.0,0.8991
700.0,0.8884
701.0,0.8809
702.0,0.8852
703.0,0.8868
704.0,0.9122
705.0,0.9135
706.0,0.9116
707.0,0.9118
708.0,0.9139
709.0,0.9134
710.0,0.9142
711.0,0.9124
712.0,0.9088
713.0,0.9004
714.0,0.9036
715.0,0.877
716.0,0.878
717.0,0.7798
718.0,0.7194
719.0,0.661
720.0,0.6937
721.0,0.7543
722.0,0.8506
723.0,0.7984
724.0,0.7266
725.0,0.7176
726.0,0.7497
727.0,0.7562
728.0,0.7166
729.0,0.7367
730.0,0.7794
731.0,0.7478
732.0,0.793
733.0,0.8327
734.0,0.8506
735.0,0.834
736.0,0.8328
737.0,0.8363
738.0,0.8448
739.0,0.8283
740.0,0.8485
741.0,0.8393
742.0,0.8393
743.0,0.8604
744.0,0.8574
745.0,0.8572
746.0,0.8611
747.0,0.8629
748.0,0.8611
749.0,0.8512
750.0,0.8507
751.0,0.842
752.0,0.8456
753.0,0.8498
754.0,0.8518
755.0,0.8469
756.0,0.8465
757.0,0.8478
758.0,0.8373
759.0,0.8229
760.0,0.1881
761.0,0.1105
762.0,0.4719
763.0,0.2669
764.0,0.3734
765.0,0.4722
766.0,0.5552
767.0,0.6767
768.0,0.7623
769.0,0.7742
770.0,0.7958
771.0,0.8002
772.0,0.8013
773.0,0.8067
774.0,0.8027
775.0,0.7965
776.0,0.8061
777.0,0.7954
778.0,0.7906
779.0,0.7913
780.0,0.7868
781.0,0.7876
782.0,0.7925
783.0,0.7786
784.0,0.7823
785.0,0.7767
786.0,0.7854
787.0,0.7736
788.0,0.7649
789.0,0.7648
790.0,0.7473
791.0,0.751
792.0,0.7452
793.0,0.7334
794.0,0.743
795.0,0.7563
796.0,0.7369
797.0,0.738
798.0,0.7558
799.0,0.7517
800.0,0.7396
801.0,0.7381
802.0,0.7359
803.0,0.7308
804.0,0.7314
805.0,0.728
806.0,0.7466
807.0,0.738
808.0,0.7385
809.0,0.726
810.0,0.7211
811.0,0.7238
812.0,0.7058
813.0,0.6928
814.0,0.6186
815.0,0.6145
816.0,0.5732
817.0,0.5826
818.0,0.5628
819.0,0.6213
820.0,0.5882
821.0,0.6768
822.0,0.6592
823.0,0.4657
824.0,0.6437
825.0,0.6655
826.0,0.6435
827.0,0.6756
828.0,0.5826
829.0,0.6389
830.0,0.6316
831.0,0.6335
832.0,0.6158
833.0,0.6501
834.0,0.6304
835.0,0.6856
836.0,0.6605
837.0,0.6872
838.0,0.6677
839.0,0.6764
840.0,0.6908
841.0,0.6818
842.0,0.682
843.0,0.6803
844.0,0.6716
845.0,0.6932
846.0,0.69
847.0,0.6768
848.0,0.6731
849.0,0.654
850.0,0.6265
851.0,0.664
852.0,0.659
853.0,0.6339
854.0,0.5477
855.0,0.6012
856.0,0.6572
857.0,0.6715
858.0,0.6667
859.0,0.667
860.0,0.6681
861.0,0.6645
862.0,0.6748
863.0,0.6907
864.0,0.6562
865.0,0.6504
866.0,0.5848
867.0,0.6103
868.0,0.6641
869.0,0.6503
870.0,0.6688
871.0,0.6597
872.0,0.6573
873.0,0.656
874.0,0.6482
875.0,0.6351
876.0,0.6417
877.0,0.6482
878.0,0.6553
879.0,0.6452
880.0,0.6314
881.0,0.6222
882.0,0.6357
883.0,0.6375
884.0,0.6346
885.0,0.6394
886.0,0.6104
887.0,0.6161
888.0,0.6257
889.0,0.6319
890.0,0.6276
891.0,0.6261
892.0,0.6092
893.0,0.5917
894.0,0.5739
895.0,0.5461
896.0,0.5161
897.0,0.4485
898.0,0.4864
899.0,0.3763
900.0,0.4949
901.0,0.3942
902.0,0.4542
903.0,0.4614
904.0,0.5696
905.0,0.5516
906.0,0.5176
907.0,0.4282
908.0,0.4356
909.0,0.4682
910.0,0.4206
911.0,0.4444
912.0,0.463
913.0,0.4272
914.0,0.4224
915.0,0.4573
916.0,0.389
917.0,0.4865
918.0,0.3991
919.0,0.4937
920.0,0.4953
921.0,0.5144
922.0,0.4646
923.0,0.4967
924.0,0.4765
925.0,0.4662
926.0,0.4713
927.0,0.5232
928.0,0.3965
929.0,0.3654
930.0,0.2925
931.0,0.2762
932.0,0.2044
933.0,0.1691
934.0,0.09901
935.0,0.1706
936.0,0.1104
937.0,0.1124
938.0,0.1367
939.0,0.2677
940.0,0.3183
941.0,0.2453
942.0,0.2808
943.0,0.1887
944.0,0.1951
945.0,0.252
946.0,0.1337
947.0,0.2546
948.0,0.1879
949.0,0.3354
950.0,0.1016
951.0,0.3293
952.0,0.184
953.0,0.233
954.0,0.2806
955.0,0.2351
956.0,0.2257
957.0,0.185
958.0,0.3125
959.0,0.2538
960.0,0.2844
961.0,0.3149
962.0,0.2985
963.0,0.3404
964.0,0.3131
965.0,0.3387
966.0,0.3397
967.0,0.3386
968.0,0.4412
969.0,0.4618
970.0,0.4259
971.0,0.482
972.0,0.4621
973.0,0.4079
974.0,0.388
975.0,0.4005
976.0,0.3833
977.0,0.4304
978.0,0.4113
979.0,0.4289
980.0,0.4044
981.0,0.4789
982.0,0.4599
983.0,0.4428
984.0,0.4912
985.0,0.4582
986.0,0.4985
987.0,0.4903
988.0,0.4893
989.0,0.4962
990.0,0.4863
991.0,0.4978
992.0,0.5005
993.0,0.4909
994.0,0.5002
995.0,0.4994
996.0,0.4974
997.0,0.498
998.0,0.4958
999.0,0.4939
1000.0,0.4908
1001.0,0.4965
1002.0,0.4842
1003.0,0.4878
1004.0,0.4763
1005.0,0.4583
1006.0,0.4765
1007.0,0.4864
1008.0,0.484
1009.0,0.4817
1010.0,0.4798
1011.0,0.4839
1012.0,0.48
1013.0,0.4827
1014.0,0.4793
1015.0,0.4762
1016.0,0.4741
1017.0,0.4753
1018.0,0.4734
1019.0,0.4638
1020.0,0.4709
1021.0,0.4702
1022.0,0.4667
1023.0,0.4717
1024.0,0.4661
1025.0,0.4712
1026.0,0.4693
1027.0,0.4682
1028.0,0.4673
1029.0,0.4618
1030.0,0.4648
1031.0,0.463
1032.0,0.4616
1033.0,0.4547
1034.0,0.4547
1035.0,0.4561
1036.0,0.4585
1037.0,0.451
1038.0,0.453
1039.0,0.4528
1040.0,0.451
1041.0,0.4528
1042.0,0.4497
1043.0,0.4483
1044.0,0.4499
1045.0,0.4438
1046.0,0.4389
1047.0,0.4429
1048.0,0.4454
1049.0,0.4438
1050.0,0.4418
1051.0,0.4413
1052.0,0.4395
1053.0,0.4361
1054.0,0.4371
1055.0,0.4374
1056.0,0.436
1057.0,0.4347
1058.0,0.4241
1059.0,0.4246
1060.0,0.424
1061.0,0.4236
1062.0,0.4259
1063.0,0.4217
1064.0,0.4267
1065.0,0.4238
1066.0,0.4153
1067.0,0.4207
1068.0,0.4116
1069.0,0.3988
1070.0,0.4125
1071.0,0.4184
1072.0,0.414
1073.0,0.4079
1074.0,0.418
1075.0,0.3985
1076.0,0.4177
1077.0,0.4111
1078.0,0.4036
1079.0,0.4108
1080.0,0.4047
1081.0,0.3924
1082.0,0.3975
1083.0,0.3984
1084.0,0.3919
1085.0,0.4055
1086.0,0.3723
1087.0,0.3826
1088.0,0.3983
1089.0,0.3874
1090.0,0.3799
1091.0,0.3973
1092.0,0.396
1093.0,0.34
1094.0,0.3629
1095.0,0.3536
1096.0,0.3399
1097.0,0.3868
1098.0,0.335
1099.0,0.3488
1100.0,0.3261
1101.0,0.3297
1102.0,0.316
1103.0,0.3138
1104.0,0.3141
1105.0,0.3412
1106.0,0.2683
1107.0,0.3255
1108.0,0.2803
1109.0,0.2799
1110.0,0.3232
1111.0,0.2251
1112.0,0.2774
1113.0,0.1827
1114.0,0.2035
1115.0,0.1689
1116.0,0.1387
1117.0,0.05515
1118.0,0.1495
1119.0,0.07748
1120.0,0.09765
1121.0,0.1275
1122.0,0.05656
1123.0,0.08813
1124.0,0.07443
1125.0,0.0963
1126.0,0.03641
1127.0,0.1084
1128.0,0.06794
1129.0,0.07161
1130.0,0.04846
1131.0,0.1982
1132.0,0.1569
1133.0,0.1033
1134.0,0.02881
1135.0,0.01068
1136.0,0.08758
1137.0,0.1959
1138.0,0.1388
1139.0,0.1997
1140.0,0.1697
1141.0,0.1319
1142.0,0.1502
1143.0,0.2103
1144.0,0.07718
1145.0,0.09953
1146.0,0.1074
1147.0,0.0408
1148.0,0.1821
1149.0,0.1476
1150.0,0.08277
1151.0,0.1378
1152.0,0.167
1153.0,0.1607
1154.0,0.09706
1155.0,0.2084
1156.0,0.1891
1157.0,0.2101
1158.0,0.2077
1159.0,0.2221
1160.0,0.1921
1161.0,0.2323
1162.0,0.2338
1163.0,0.3082
1164.0,0.2672
1165.0,0.2547
1166.0,0.251
1167.0,0.272
1168.0,0.2756
1169.0,0.2811
1170.0,0.3033
1171.0,0.296
1172.0,0.3001
1173.0,0.3026
1174.0,0.2224
1175.0,0.2946
1176.0,0.3207
1177.0,0.3099
1178.0,0.2376
1179.0,0.3232
1180.0,0.292
1181.0,0.301
1182.0,0.213
1183.0,0.2956
1184.0,0.2788
1185.0,0.2705
1186.0,0.3155
1187.0,0.3022
1188.0,0.2171
1189.0,0.2819
1190.0,0.3083
1191.0,0.2956
1192.0,0.3123
1193.0,0.3003
1194.0,0.3088
1195.0,0.2941
1196.0,0.2845
1197.0,0.3079
1198.0,0.2832
1199.0,0.2454
1200.0,0.2967
1201.0,0.2877
1202.0,0.2851
1203.0,0.2828
1204.0,0.2498
1205.0,0.2904
1206.0,0.3182
1207.0,0.2848
1208.0,0.279
1209.0,0.2843
1210.0,0.2952
1211.0,0.2829
1212.0,0.2815
1213.0,0.3087
1214.0,0.2872
1215.0,0.2823
1216.0,0.3076
1217.0,0.3004
1218.0,0.3052
1219.0,0.3019
1220.0,0.3054
1221.0,0.308
1222.0,0.3005
1223.0,0.2981
1224.0,0.2969
1225.0,0.306
1226.0,0.3075
1227.0,0.286
1228.0,0.3086
1229.0,0.3076
1230.0,0.3027
1231.0,0.3099
1232.0,0.3081
1233.0,0.2994
1234.0,0.3092
1235.0,0.3075
1236.0,0.3096
1237.0,0.306
1238.0,0.3085
1239.0,0.3046
1240.0,0.3056
1241.0,0.3046
1242.0,0.3036
1243.0,0.3011
1244.0,0.3034
1245.0,0.3046
1246.0,0.3028
1247.0,0.3017
1248.0,0.3018
1249.0,0.3025
1250.0,0.3008
1251.0,0.2972
1252.0,0.2969
1253.0,0.2952
1254.0,0.2927
1255.0,0.2968
1256.0,0.2896
1257.0,0.2883
1258.0,0.2927
1259.0,0.284
1260.0,0.2852
1261.0,0.2715
1262.0,0.2646
1263.0,0.2652
1264.0,0.2476
1265.0,0.2634
1266.0,0.2552
1267.0,0.2585
1268.0,0.247
1269.0,0.166
1270.0,0.258
1271.0,0.2703
1272.0,0.2709
1273.0,0.2683
1274.0,0.2689
1275.0,0.2723
1276.0,0.2745
1277.0,0.2758
1278.0,0.2801
1279.0,0.2777
1280.0,0.2741
1281.0,0.2611
1282.0,0.2509
1283.0,0.2704
1284.0,0.277
1285.0,0.2787
1286.0,0.282
1287.0,0.2784
1288.0,0.2782
1289.0,0.2708
1290.0,0.2756
1291.0,0.2792
1292.0,0.265
1293.0,0.2744
1294.0,0.2727
1295.0,0.272
1296.0,0.2615
1297.0,0.2487
1298.0,0.2649
1299.0,0.2745
1300.0,0.2372
1301.0,0.2435
1302.0,0.264
1303.0,0.2335
1304.0,0.2036
1305.0,0.2589
1306.0,0.2592
1307.0,0.2065
1308.0,0.2332
1309.0,0.2576
1310.0,0.2027
1311.0,0.2245
1312.0,0.2192
1313.0,0.2157
1314.0,0.1946
1315.0,0.1931
1316.0,0.2217
1317.0,0.2106
1318.0,0.227
1319.0,0.1827
1320.0,0.1759
1321.0,0.2031
1322.0,0.2059
1323.0,0.1593
1324.0,0.1792
1325.0,0.2188
1326.0,0.1906
1327.0,0.1825
1328.0,0.1587
1329.0,0.1228
1330.0,0.1581
1331.0,0.09981
1332.0,0.1015
1333.0,0.1402
1334.0,0.1169
1335.0,0.1586
1336.0,0.1277
1337.0,0.1142
1338.0,0.1234
1339.0,0.1223
1340.0,0.1178
1341.0,0.1176
1342.0,0.1233
1343.0,0.08893
1344.0,0.05305
1345.0,0.07599
1346.0,0.04138
1347.0,0.0427
1348.0,0.0035
1349.0,0.01173
1350.0,0.01161
1351.0,0.003476
1352.0,0.001167
1353.0,7.681e-05
1354.0,0.0002259
1355.0,3.033e-06
1356.0,3.832e-05
1357.0,5.791e-05
1358.0,3.519e-06
1359.0,6.455e-07
1360.0,1.841e-06
1361.0,4.626e-09
1362.0,1.821e-11
1363.0,2.744e-06
1364.0,1.18e-06
1365.0,9.813e-12
1366.0,1.084e-05
1367.0,4.223e-06
1368.0,1.787e-13
1369.0,4.526e-07
1370.0,2.612e-07
1371.0,1.823e-08
1372.0,2.33e-06
1373.0,3.616e-05
1374.0,0.000141
1375.0,0.0002557
1376.0,0.0002015
1377.0,9.627e-05
1378.0,0.0008615
1379.0,4.087e-05
1380.0,6.519e-05
1381.0,1.921e-06
1382.0,2.196e-06
1383.0,3.87e-08
1384.0,5.438e-07
1385.0,1.748e-06
1386.0,2.178e-06
1387.0,0.0001609
1388.0,3.283e-06
1389.0,0.0004531
1390.0,0.0003895
1391.0,0.0002714
1392.0,1.898e-05
1393.0,9.117e-05
1394.0,6.19e-05
1395.0,5.694e-07
1396.0,5.993e-09
1397.0,3.904e-05
1398.0,0.0009827
1399.0,0.000623
1400.0,3.186e-09
1401.0,9.984e-09
1402.0,0.00138
1403.0,0.001807
1404.0,0.0005613
1405.0,3.177e-07
1406.0,0.001564
1407.0,0.0001335
1408.0,0.001266
1409.0,0.0004835
1410.0,0.00036
1411.0,0.001577
1412.0,0.002002
1413.0,0.01708
1414.0,0.00028
1415.0,0.0001432
1416.0,0.02548
1417.0,0.008583
1418.0,0.009848
1419.0,0.001572
1420.0,0.006062
1421.0,0.0066
1422.0,0.033
1423.0,0.006634
1424.0,0.01222
1425.0,0.01829
1426.0,0.01997
1427.0,0.03491
1428.0,0.003345
1429.0,0.0269
1430.0,0.04389
1431.0,0.04772
1432.0,0.002657
1433.0,0.03104
1434.0,0.01613
1435.0,0.01729
1436.0,0.03152
1437.0,0.02416
1438.0,0.01072
1439.0,0.04206
1440.0,0.03159
1441.0,0.02494
1442.0,0.0275
1443.0,0.03322
1444.0,0.04543
1445.0,0.03661
1446.0,0.01679
1447.0,0.02641
1448.0,0.08191
1449.0,0.07214
1450.0,0.01954
1451.0,0.008103
1452.0,0.0444
1453.0,0.05772
1454.0,0.0956
1455.0,0.04637
