interpolation:linear
wavelength,value
280.0,7.795e-21
280.5,2.364e-19
281.0,1.234e-18
281.5,4.942e-19
282.0,1.465e-18
282.5,3.839e-18
283.0,1.232e-17
283.5,2.01e-17
284.0,3.182e-16
284.5,9.071e-16
285.0,1.815e-15
285.5,9.45e-15
286.0,3.84e-14
286.5,1.724e-13
287.0,4.913e-13
287.5,1.864e-12
288.0,4.88e-12
288.5,1.727e-11
289.0,5.164e-11
289.5,1.714e-10
290.0,5.064e-10
290.5,1.082e-09
291.0,2.44e-09
291.5,7.594e-09
292.0,1.848e-08
292.5,2.898e-08
293.0,7.186e-08
293.5,2.149e-07
294.0,3.915e-07
294.5,5.184e-07
295.0,1.024e-06
295.5,2.799e-06
296.0,5.564e-06
296.5,8.027e-06
297.0,1.115e-05
297.5,3.115e-05
298.0,5.088e-05
298.5,5.268e-05
299.0,0.0001196
299.5,0.0002089
300.0,0.0002371
300.5,0.0003552
301.0,0.0006821
301.5,0.001159
302.0,0.00103
302.5,0.001998
303.0,0.003553
303.5,0.004443
304.0,0.004151
304.5,0.006099
305.0,0.009037
305.5,0.0102
306.0,0.009815
306.5,0.0121
307.0,0.01756
307.5,0.02285
308.0,0.02406
308.5,0.02811
309.0,0.02747
309.5,0.03095
310.0,0.03088
310.5,0.04984
311.0,0.06218
311.5,0.05988
312.0,0.05908
312.5,0.07125
313.0,0.07692
313.5,0.07504
314.0,0.0928
314.5,0.08108
315.0,0.1063
315.5,0.08956
316.0,0.07728
316.5,0.1098
317.0,0.1364
317.5,0.1424
318.0,0.1103
318.5,0.135
319.0,0.1591
319.5,0.1312
320.0,0.1588
320.5,0.1959
321.0,0.1721
321.5,0.1648
322.0,0.1782
322.5,0.1549
323.0,0.1529
323.5,0.1863
324.0,0.2171
324.5,0.2213
325.0,0.1921
325.5,0.2452
326.0,0.2992
326.5,0.2981
327.0,0.2977
327.5,0.2882
328.0,0.2585
328.5,0.2694
329.0,0.3204
329.5,0.363
330.0,0.3668
330.5,0.2951
331.0,0.3013
331.5,0.305
332.0,0.3277
332.5,0.3233
333.0,0.3229
333.5,0.2935
334.0,0.3009
334.5,0.3456
335.0,0.3239
335.5,0.3783
336.0,0.2618
336.5,0.307
337.0,0.2524
337.5,0.3142
338.0,0.3056
338.5,0.3527
339.0,0.3491
339.5,0.3359
340.0,0.3949
340.5,0.3558
341.0,0.3471
341.5,0.3186
342.0,0.3808
342.5,0.3563
343.0,0.3919
343.5,0.3691
344.0,0.2728
344.5,0.2756
345.0,0.3647
345.5,0.3724
346.0,0.3165
346.5,0.3584
347.0,0.3849
347.5,0.3112
348.0,0.3548
348.5,0.3547
349.0,0.329
349.5,0.3258
350.0,0.4031
350.5,0.4252
351.0,0.3799
351.5,0.3693
352.0,0.3967
352.5,0.3096
353.0,0.39
353.5,0.417
354.0,0.433
354.5,0.4392
355.0,0.4378
355.5,0.3955
356.0,0.4139
356.5,0.3534
357.0,0.2921
357.5,0.3576
358.0,0.2834
358.5,0.2422
359.0,0.3389
359.5,0.4319
360.0,0.4579
360.5,0.366
361.0,0.3337
361.5,0.3843
362.0,0.3324
362.5,0.4601
363.0,0.4133
363.5,0.3808
364.0,0.4658
364.5,0.3982
365.0,0.4056
365.5,0.5091
366.0,0.5395
366.5,0.507
367.0,0.4938
367.5,0.5125
368.0,0.4486
368.5,0.4527
369.0,0.489
369.5,0.5213
370.0,0.5558
370.5,0.4314
371.0,0.4611
371.5,0.5769
372.0,0.3829
372.5,0.4592
373.0,0.4672
373.5,0.304
374.0,0.4419
374.5,0.366
375.0,0.3558
375.5,0.5313
376.0,0.4405
376.5,0.4566
377.0,0.4835
377.5,0.5657
378.0,0.6133
378.5,0.5798
379.0,0.4785
379.5,0.4372
380.0,0.4546
380.5,0.5507
381.0,0.5519
381.5,0.4376
382.0,0.3887
382.5,0.3314
383.0,0.3069
383.5,0.2956
384.0,0.3262
384.5,0.4798
385.0,0.4759
385.5,0.4433
386.0,0.3797
386.5,0.4989
387.0,0.4146
387.5,0.4657
388.0,0.4301
388.5,0.4252
389.0,0.4591
389.5,0.5561
390.0,0.5582
390.5,0.5138
391.0,0.6048
391.5,0.617
392.0,0.5198
392.5,0.4654
393.0,0.259
393.5,0.1883
394.0,0.3832
394.5,0.4873
395.0,0.5947
395.5,0.6042
396.0,0.5239
396.5,0.3063
397.0,0.2299
397.5,0.4677
398.0,0.655
398.5,0.6771
399.0,0.7333
399.5,0.731
400.0,0.7592
401.0,0.7704
402.0,0.813
403.0,0.7725
404.0,0.7608
405.0,0.7608
406.0,0.7486
407.0,0.7367
408.0,0.7656
409.0,0.8196
410.0,0.7163
411.0,0.7761
412.0,0.8337
413.0,0.8132
414.0,0.8233
415.0,0.8256
416.0,0.8402
417.0,0.8197
418.0,0.8047
419.0,0.8154
420.0,0.812
421.0,0.8496
422.0,0.8076
423.0,0.789
424.0,0.8347
425.0,0.8333
426.0,0.8118
427.0,0.7967
428.0,0.7762
429.0,0.7353
430.0,0.6436
431.0,0.638
432.0,0.8238
433.0,0.8285
434.0,0.7694
435.0,0.8036
436.0,0.9056
437.0,0.8935
438.0,0.8137
439.0,0.8417
440.0,0.8685
441.0,0.9001
442.0,0.9654
443.0,0.9404
444.0,0.9609
445.0,0.9402
446.0,0.8973
447.0,0.9701
448.0,0.9853
449.0,0.9893
450.0,1.017
451.0,1.055
452.0,1.016
453.0,0.9559
454.0,0.998
455.0,1.004
456.0,1.028
457.0,1.045
458.0,1.01
459.0,1.004
460.0,1.007
461.0,1.03
462.0,1.038
463.0,1.031
464.0,1.014
465.0,1.001
466.0,1.011
467.0,0.9928
468.0,1.004
469.0,1.01
470.0,0.9776
471.0,0.9764
472.0,1.029
473.0,1.015
474.0,1.017
475.0,1.026
476.0,0.9952
477.0,0.998
478.0,1.026
479.0,1.019
480.0,1.021
481.0,1.04
482.0,1.046
483.0,1.033
484.0,1.012
485.0,0.9641
486.0,0.8428
487.0,0.8833
488.0,0.969
489.0,0.9721
490.0,1.023
491.0,1.005
492.0,0.9491
493.0,0.9802
494.0,0.99
495.0,0.9984
496.0,1.005
497.0,1.02
498.0,0.9725
499.0,0.985
500.0,0.9563
501.0,0.9388
502.0,0.9257
503.0,0.9635
504.0,0.9392
505.0,0.9726
506.0,1.004
507.0,0.9554
508.0,0.9256
509.0,0.9515
510.0,0.9465
511.0,0.9718
512.0,0.9823
513.0,0.9298
514.0,0.9234
515.0,0.9142
516.0,0.912
517.0,0.8103
518.0,0.8519
519.0,0.8936
520.0,0.9261
521.0,0.9349
522.0,0.9357
523.0,0.9189
524.0,0.9518
525.0,0.9631
526.0,0.92
527.0,0.867
528.0,0.917
529.0,0.9666
530.0,0.9527
531.0,0.9669
532.0,0.9337
533.0,0.9063
534.0,0.9331
535.0,0.9534
536.0,0.9622
537.0,0.9242
538.0,0.9405
539.0,0.9326
540.0,0.8942
541.0,0.9001
542.0,0.9284
543.0,0.9185
544.0,0.9345
545.0,0.9316
546.0,0.9357
547.0,0.9353
548.0,0.9241
549.0,0.9269
550.0,0.9379
551.0,0.9265
552.0,0.9329
553.0,0.9163
554.0,0.9382
555.0,0.9401
556.0,0.9279
557.0,0.899
558.0,0.8923
559.0,0.8757
560.0,0.8866
561.0,0.8981
562.0,0.8916
563.0,0.916
564.0,0.8911
565.0,0.8834
566.0,0.8705
567.0,0.887
568.0,0.8792
569.0,0.8584
570.0,0.8581
571.0,0.8529
572.0,0.8735
573.0,0.8828
574.0,0.88
575.0,0.8636
576.0,0.8557
577.0,0.8651
578.0,0.852
579.0,0.8554
580.0,0.8716
581.0,0.876
582.0,0.8925
583.0,0.8947
584.0,0.9024
585.0,0.8803
586.0,0.8622
587.0,0.8812
588.0,0.8599
589.0,0.7621
590.0,0.797
591.0,0.8432
592.0,0.8326
593.0,0.8448
594.0,0.839
595.0,0.8184
596.0,0.8504
597.0,0.8413
598.0,0.8391
599.0,0.8398
600.0,0.841
601.0,0.8341
602.0,0.8284
603.0,0.8421
604.0,0.856
605.0,0.8516
606.0,0.848
607.0,0.8564
608.0,0.8469
609.0,0.8484
610.0,0.8423
611.0,0.8467
612.0,0.8442
613.0,0.8336
614.0,0.8222
615.0,0.84
616.0,0.8124
617.0,0.8107
618.0,0.8419
619.0,0.8334
620.0,0.8386
621.0,0.8395
622.0,0.8297
623.0,0.817
624.0,0.803
625.0,0.8012
626.0,0.8131
627.0,0.8222
628.0,0.7683
629.0,0.8029
630.0,0.7844
631.0,0.802
632.0,0.7924
633.0,0.8164
634.0,0.8084
635.0,0.821
636.0,0.8101
637.0,0.8233
638.0,0.8312
639.0,0.8219
640.0,0.8139
641.0,0.8134
642.0,0.8097
643.0,0.8205
644.0,0.8179
645.0,0.8192
646.0,0.8001
647.0,0.7908
648.0,0.7915
649.0,0.7762
650.0,0.7798
651.0,0.8136
652.0,0.7799
653.0,0.8028
654.0,0.7938
655.0,0.7644
656.0,0.6774
657.0,0.6956
658.0,0.7795
659.0,0.7851
660.0,0.7883
661.0,0.7939
662.0,0.7955
663.0,0.7798
664.0,0.789
665.0,0.7896
666.0,0.7902
667.0,0.7894
668.0,0.7898
669.0,0.802
670.0,0.7985
671.0,0.7983
672.0,0.7915
673.0,0.8034
674.0,0.8004
675.0,0.7931
676.0,0.7985
677.0,0.7906
678.0,0.7928
679.0,0.78
680.0,0.7863
681.0,0.7811
682.0,0.7801
683.0,0.7786
684.0,0.7747
685.0,0.7813
686.0,0.7767
687.0,0.5173
688.0,0.6055
689.0,0.6077
690.0,0.6371
691.0,0.6702
692.0,0.6944
693.0,0.6888
694.0,0.683
695.0,0.7111
696.0,0.7121
697.0,0.7554
698.0,0.7437
699.0,0.7261
700.0,0.7173
701.0,0.7101
702.0,0.7149
703.0,0.7162
704.0,0.739
705.0,0.7402
706.0,0.7395
707.0,0.74
708.0,0.7416
709.0,0.7426
710.0,0.7426
711.0,0.7416
712.0,0.7393
713.0,0.7319
714.0,0.7347
715.0,0.7115
716.0,0.7119
717.0,0.6181
718.0,0.5678
719.0,0.5202
720.0,0.5449
721.0,0.6012
722.0,0.6874
723.0,0.6401
724.0,0.577
725.0,0.5678
726.0,0.5943
727.0,0.6027
728.0,0.5664
729.0,0.5874
730.0,0.6216
731.0,0.5947
732.0,0.6359
733.0,0.673
734.0,0.6889
735.0,0.6747
736.0,0.6738
737.0,0.6765
738.0,0.6867
739.0,0.6732
740.0,0.6907
741.0,0.6838
742.0,0.6844
743.0,0.7019
744.0,0.6998
745.0,0.7
746.0,0.7032
747.0,0.7047
748.0,0.7032
749.0,0.6952
750.0,0.6948
751.0,0.6878
752.0,0.6907
753.0,0.6942
754.0,0.6958
755.0,0.6918
756.0,0.6915
757.0,0.6925
758.0,0.6839
759.0,0.6701
760.0,0.112
761.0,0.05872
762.0,0.3431
763.0,0.1712
764.0,0.2576
765.0,0.3431
766.0,0.4213
767.0,0.5317
768.0,0.6137
769.0,0.6267
770.0,0.648
771.0,0.6533
772.0,0.6546
773.0,0.6592
774.0,0.656
775.0,0.651
776.0,0.659
777.0,0.6503
778.0,0.6463
779.0,0.6469
780.0,0.6432
781.0,0.6439
782.0,0.6479
783.0,0.6366
784.0,0.6397
785.0,0.635
786.0,0.642
787.0,0.6308
788.0,0.6229
789.0,0.6227
790.0,0.6061
791.0,0.6114
792.0,0.6069
793.0,0.597
794.0,0.6072
795.0,0.6175
796.0,0.5985
797.0,0.5993
798.0,0.6168
799.0,0.6128
800.0,0.6022
801.0,0.6003
802.0,0.5986
803.0,0.594
804.0,0.5948
805.0,0.593
806.0,0.6096
807.0,0.6023
808.0,0.6028
809.0,0.5915
810.0,0.5867
811.0,0.5874
812.0,0.5706
813.0,0.5587
814.0,0.4916
815.0,0.4886
816.0,0.4547
817.0,0.463
818.0,0.4457
819.0,0.4983
820.0,0.4693
821.0,0.5486
822.0,0.5329
823.0,0.3623
824.0,0.5174
825.0,0.539
826.0,0.5186
827.0,0.5473
828.0,0.4639
829.0,0.5154
830.0,0.5087
831.0,0.5105
832.0,0.4948
833.0,0.5265
834.0,0.5078
835.0,0.558
836.0,0.534
837.0,0.5595
838.0,0.5421
839.0,0.5511
840.0,0.5632
841.0,0.5552
842.0,0.5564
843.0,0.5562
844.0,0.5484
845.0,0.567
846.0,0.5645
847.0,0.554
848.0,0.5505
849.0,0.5349
850.0,0.5125
851.0,0.5426
852.0,0.5388
853.0,0.5186
854.0,0.4478
855.0,0.492
856.0,0.5376
857.0,0.5497
858.0,0.5456
859.0,0.5461
860.0,0.5471
861.0,0.5441
862.0,0.5526
863.0,0.5657
864.0,0.5374
865.0,0.5327
866.0,0.479
867.0,0.4999
868.0,0.544
869.0,0.5327
870.0,0.5479
871.0,0.5404
872.0,0.5385
873.0,0.5374
874.0,0.531
875.0,0.5203
876.0,0.5257
877.0,0.531
878.0,0.5367
879.0,0.5285
880.0,0.5172
881.0,0.5094
882.0,0.5204
883.0,0.522
884.0,0.5196
885.0,0.5236
886.0,0.4989
887.0,0.5042
888.0,0.5116
889.0,0.5176
890.0,0.5131
891.0,0.5123
892.0,0.4973
893.0,0.4815
894.0,0.4641
895.0,0.438
896.0,0.4124
897.0,0.3535
898.0,0.3862
899.0,0.2928
900.0,0.3959
901.0,0.3069
902.0,0.3614
903.0,0.3646
904.0,0.4606
905.0,0.4445
906.0,0.4158
907.0,0.3367
908.0,0.3435
909.0,0.3727
910.0,0.3286
911.0,0.3509
912.0,0.367
913.0,0.3334
914.0,0.3308
915.0,0.3586
916.0,0.3032
917.0,0.386
918.0,0.3109
919.0,0.3933
920.0,0.398
921.0,0.414
922.0,0.3693
923.0,0.4
924.0,0.3784
925.0,0.3702
926.0,0.3741
927.0,0.4197
928.0,0.3054
929.0,0.2781
930.0,0.2173
931.0,0.2061
932.0,0.1471
933.0,0.1188
934.0,0.06365
935.0,0.1222
936.0,0.07533
937.0,0.07623
938.0,0.09414
939.0,0.1996
940.0,0.2411
941.0,0.1807
942.0,0.21
943.0,0.1371
944.0,0.1453
945.0,0.1865
946.0,0.09347
947.0,0.187
948.0,0.1372
949.0,0.2518
950.0,0.06769
951.0,0.2482
952.0,0.1314
953.0,0.171
954.0,0.2111
955.0,0.1731
956.0,0.1689
957.0,0.1314
958.0,0.2414
959.0,0.1901
960.0,0.2131
961.0,0.2405
962.0,0.2274
963.0,0.2633
964.0,0.2408
965.0,0.2624
966.0,0.2621
967.0,0.2609
968.0,0.3539
969.0,0.3693
970.0,0.3386
971.0,0.3894
972.0,0.3721
973.0,0.3222
974.0,0.3055
975.0,0.3179
976.0,0.3008
977.0,0.3443
978.0,0.3263
979.0,0.3423
980.0,0.3215
981.0,0.3872
982.0,0.3695
983.0,0.3544
984.0,0.3997
985.0,0.3681
986.0,0.4071
987.0,0.3987
988.0,0.398
989.0,0.4062
990.0,0.3956
991.0,0.4074
992.0,0.4098
993.0,0.4001
994.0,0.4097
995.0,0.4093
996.0,0.4074
997.0,0.408
998.0,0.406
999.0,0.4046
1000.0,0.4016
1001.0,0.4068
1002.0,0.395
1003.0,0.3995
1004.0,0.3896
1005.0,0.3756
1006.0,0.3901
1007.0,0.3984
1008.0,0.3962
1009.0,0.394
1010.0,0.3922
1011.0,0.3964
1012.0,0.3929
1013.0,0.3955
1014.0,0.3927
1015.0,0.3901
1016.0,0.3884
1017.0,0.3893
1018.0,0.3879
1019.0,0.3794
1020.0,0.3858
1021.0,0.3853
1022.0,0.3823
1023.0,0.3863
1024.0,0.3811
1025.0,0.3861
1026.0,0.3844
1027.0,0.3835
1028.0,0.3827
1029.0,0.3782
1030.0,0.3808
1031.0,0.3793
1032.0,0.3782
1033.0,0.3725
1034.0,0.3725
1035.0,0.3737
1036.0,0.3756
1037.0,0.3695
1038.0,0.3711
1039.0,0.3709
1040.0,0.3694
1041.0,0.3709
1042.0,0.3683
1043.0,0.3671
1044.0,0.3684
1045.0,0.3634
1046.0,0.3593
1047.0,0.3626
1048.0,0.3645
1049.0,0.3632
1050.0,0.3615
1051.0,0.361
1052.0,0.3595
1053.0,0.3566
1054.0,0.3574
1055.0,0.3575
1056.0,0.3562
1057.0,0.3551
1058.0,0.3463
1059.0,0.3467
1060.0,0.3461
1061.0,0.3457
1062.0,0.3475
1063.0,0.344
1064.0,0.3481
1065.0,0.3455
1066.0,0.3388
1067.0,0.3431
1068.0,0.3356
1069.0,0.3252
1070.0,0.3362
1071.0,0.3416
1072.0,0.3376
1073.0,0.3327
1074.0,0.3415
1075.0,0.3239
1076.0,0.3412
1077.0,0.3348
1078.0,0.3283
1079.0,0.3359
1080.0,0.3296
1081.0,0.3188
1082.0,0.3244
1083.0,0.3255
1084.0,0.3179
1085.0,0.3304
1086.0,0.3007
1087.0,0.311
1088.0,0.3251
1089.0,0.3146
1090.0,0.3073
1091.0,0.3239
1092.0,0.3232
1093.0,0.2725
1094.0,0.2955
1095.0,0.2841
1096.0,0.2715
1097.0,0.3157
1098.0,0.2671
1099.0,0.2789
1100.0,0.2586
1101.0,0.262
1102.0,0.2499
1103.0,0.2471
1104.0,0.2475
1105.0,0.2724
1106.0,0.2058
1107.0,0.2582
1108.0,0.2173
1109.0,0.218
1110.0,0.2557
1111.0,0.1714
1112.0,0.2165
1113.0,0.1356
1114.0,0.1518
1115.0,0.1258
1116.0,0.0991
1117.0,0.03498
1118.0,0.1083
1119.0,0.05256
1120.0,0.06607
1121.0,0.08841
1122.0,0.03619
1123.0,0.05976
1124.0,0.05042
1125.0,0.06607
1126.0,0.02199
1127.0,0.07462
1128.0,0.04353
1129.0,0.04635
1130.0,0.03008
1131.0,0.1442
1132.0,0.1126
1133.0,0.06991
1134.0,0.01705
1135.0,0.006436
1136.0,0.0578
1137.0,0.1412
1138.0,0.09916
1139.0,0.1507
1140.0,0.1248
1141.0,0.09426
1142.0,0.109
1143.0,0.156
1144.0,0.05311
1145.0,0.06746
1146.0,0.07274
1147.0,0.02454
1148.0,0.1349
1149.0,0.1069
1150.0,0.05727
1151.0,0.09838
1152.0,0.1221
1153.0,0.1197
1154.0,0.06524
1155.0,0.1572
1156.0,0.141
1157.0,0.1591
1158.0,0.1573
1159.0,0.1704
1160.0,0.1449
1161.0,0.1799
1162.0,0.1807
1163.0,0.2461
1164.0,0.2104
1165.0,0.1978
1166.0,0.1969
1167.0,0.2148
1168.0,0.217
1169.0,0.2224
1170.0,0.2422
1171.0,0.2361
1172.0,0.2407
1173.0,0.2417
1174.0,0.1714
1175.0,0.2364
1176.0,0.2604
1177.0,0.2496
1178.0,0.1866
1179.0,0.2625
1180.0,0.2337
1181.0,0.2412
1182.0,0.1656
1183.0,0.2377
1184.0,0.2225
1185.0,0.2144
1186.0,0.255
1187.0,0.2426
1188.0,0.1683
1189.0,0.226
1190.0,0.2492
1191.0,0.2362
1192.0,0.2527
1193.0,0.2421
1194.0,0.2496
1195.0,0.2358
1196.0,0.2269
1197.0,0.2498
1198.0,0.2284
1199.0,0.1938
1200.0,0.239
1201.0,0.2303
1202.0,0.2291
1203.0,0.2271
1204.0,0.1984
1205.0,0.2346
1206.0,0.2594
1207.0,0.2285
1208.0,0.225
1209.0,0.2297
1210.0,0.2394
1211.0,0.2278
1212.0,0.2249
1213.0,0.2507
1214.0,0.2303
1215.0,0.2259
1216.0,0.25
1217.0,0.2433
1218.0,0.2479
1219.0,0.2448
1220.0,0.2482
1221.0,0.2507
1222.0,0.2441
1223.0,0.2418
1224.0,0.2403
1225.0,0.2491
1226.0,0.2508
1227.0,0.2312
1228.0,0.2521
1229.0,0.2508
1230.0,0.2465
1231.0,0.2536
1232.0,0.2521
1233.0,0.2433
1234.0,0.2534
1235.0,0.2518
1236.0,0.2537
1237.0,0.2501
1238.0,0.2528
1239.0,0.2496
1240.0,0.2505
1241.0,0.2493
1242.0,0.2488
1243.0,0.2468
1244.0,0.2485
1245.0,0.2496
1246.0,0.2481
1247.0,0.2472
1248.0,0.247
1249.0,0.2478
1250.0,0.2463
1251.0,0.2431
1252.0,0.2431
1253.0,0.2411
1254.0,0.2387
1255.0,0.2429
1256.0,0.236
1257.0,0.2347
1258.0,0.2391
1259.0,0.2303
1260.0,0.2315
1261.0,0.2184
1262.0,0.2117
1263.0,0.2121
1264.0,0.1956
1265.0,0.2108
1266.0,0.2027
1267.0,0.2063
1268.0,0.1955
1269.0,0.1203
1270.0,0.2055
1271.0,0.2177
1272.0,0.2184
1273.0,0.216
1274.0,0.2168
1275.0,0.2199
1276.0,0.2221
1277.0,0.2236
1278.0,0.228
1279.0,0.2259
1280.0,0.2231
1281.0,0.2129
1282.0,0.2052
1283.0,0.221
1284.0,0.2262
1285.0,0.2278
1286.0,0.2309
1287.0,0.2272
1288.0,0.2272
1289.0,0.2199
1290.0,0.2252
1291.0,0.2284
1292.0,0.2144
1293.0,0.2239
1294.0,0.2223
1295.0,0.2212
1296.0,0.211
1297.0,0.1995
1298.0,0.215
1299.0,0.2242
1300.0,0.1894
1301.0,0.1953
1302.0,0.2143
1303.0,0.1869
1304.0,0.159
1305.0,0.2098
1306.0,0.2098
1307.0,0.1626
1308.0,0.1873
1309.0,0.2082
1310.0,0.1595
1311.0,0.1795
1312.0,0.1745
1313.0,0.1711
1314.0,0.153
1315.0,0.1509
1316.0,0.1765
1317.0,0.1672
1318.0,0.1819
1319.0,0.1416
1320.0,0.1373
1321.0,0.1601
1322.0,0.1616
1323.0,0.1211
1324.0,0.1389
1325.0,0.174
1326.0,0.149
1327.0,0.142
1328.0,0.1222
1329.0,0.09124
1330.0,0.1191
1331.0,0.07113
1332.0,0.07371
1333.0,0.1028
1334.0,0.08742
1335.0,0.1206
1336.0,0.09498
1337.0,0.08377
1338.0,0.09066
1339.0,0.09037
1340.0,0.08811
1341.0,0.08553
1342.0,0.08989
1343.0,0.05983
1344.0,0.03589
1345.0,0.05182
1346.0,0.02506
1347.0,0.02536
1348.0,0.001554
1349.0,0.005677
1350.0,0.005967
1351.0,0.001378
1352.0,0.0003523
1353.0,1.7e-05
1354.0,6.084e-05
1355.0,4.368e-07
1356.0,8.276e-06
1357.0,1.263e-05
1358.0,5.198e-07
1359.0,6.006e-08
1360.0,2.306e-07
1361.0,2.143e-10
1362.0,5.433e-13
1363.0,3.04e-07
1364.0,1.255e-07
1365.0,1.725e-13
1366.0,1.361e-06
1367.0,5.668e-07
1368.0,1.097e-15
1369.0,4.67e-08
1370.0,2.221e-08
1371.0,1.207e-09
1372.0,3.121e-07
1373.0,6.697e-06
1374.0,3.245e-05
1375.0,5.888e-05
1376.0,5.488e-05
1377.0,2.491e-05
1378.0,0.0002486
1379.0,1.046e-05
1380.0,1.469e-05
1381.0,3.747e-07
1382.0,2.786e-07
1383.0,4.042e-09
1384.0,5.204e-08
1385.0,2.75e-07
1386.0,2.42e-07
1387.0,3.285e-05
1388.0,6.485e-07
1389.0,0.0001168
1390.0,0.0001004
1391.0,6.644e-05
1392.0,4.264e-06
1393.0,2.316e-05
1394.0,1.119e-05
1395.0,7.852e-08
1396.0,3.169e-10
1397.0,9.074e-06
1398.0,0.000278
1399.0,0.0001766
1400.0,1.304e-10
1401.0,5.806e-10
1402.0,0.0005226
1403.0,0.0006494
1404.0,0.0001969
1405.0,3.704e-08
1406.0,0.0005023
1407.0,4.504e-05
1408.0,0.0004124
1409.0,0.0001335
1410.0,0.0001095
1411.0,0.0005724
1412.0,0.0007864
1413.0,0.008584
1414.0,8.685e-05
1415.0,4.097e-05
1416.0,0.01471
1417.0,0.004233
1418.0,0.004781
1419.0,0.0007328
1420.0,0.002918
1421.0,0.003161
1422.0,0.01925
1423.0,0.003673
1424.0,0.006947
1425.0,0.01012
1426.0,0.01175
1427.0,0.02223
1428.0,0.001452
1429.0,0.01631
1430.0,0.02862
1431.0,0.03165
1432.0,0.001139
1433.0,0.01984
1434.0,0.009943
1435.0,0.009436
1436.0,0.01899
1437.0,0.01457
1438.0,0.005936
1439.0,0.02617
1440.0,0.01959
1441.0,0.01451
1442.0,0.01614
