interpolation:linear
wavelength,value
280.0,6.004e-21
280.5,1.838e-19
281.0,9.629e-19
281.5,5.181e-19
282.0,1.405e-18
282.5,3.634e-18
283.0,1.16e-17
283.5,1.889e-17
284.0,2.991e-16
284.5,8.541e-16
285.0,1.766e-15
285.5,8.993e-15
286.0,3.635e-14
286.5,1.621e-13
287.0,4.607e-13
287.5,1.745e-12
288.0,4.527e-12
288.5,1.572e-11
289.0,4.627e-11
289.5,1.512e-10
290.0,4.415e-10
290.5,9.343e-10
291.0,2.083e-09
291.5,6.297e-09
292.0,1.537e-08
292.5,2.385e-08
293.0,5.83e-08
293.5,1.706e-07
294.0,3.056e-07
294.5,4.007e-07
295.0,7.778e-07
295.5,2.124e-06
296.0,4.24e-06
296.5,6.146e-06
297.0,8.579e-06
297.5,2.414e-05
298.0,3.972e-05
298.5,4.138e-05
299.0,9.451e-05
299.5,0.0001671
300.0,0.0001911
300.5,0.0002886
301.0,0.0005626
301.5,0.0009714
302.0,0.0008722
302.5,0.0017
303.0,0.003042
303.5,0.003818
304.0,0.003578
304.5,0.005296
305.0,0.007928
305.5,0.009003
306.0,0.008686
306.5,0.01075
307.0,0.01574
307.5,0.02066
308.0,0.02177
308.5,0.02554
309.0,0.02501
309.5,0.02833
310.0,0.02833
310.5,0.04578
311.0,0.05724
311.5,0.05516
312.0,0.05466
312.5,0.06612
313.0,0.07149
313.5,0.06965
314.0,0.08643
314.5,0.07587
315.0,0.09953
315.5,0.08369
316.0,0.07249
316.5,0.1033
317.0,0.1283
317.5,0.1338
318.0,0.1039
318.5,0.1277
319.0,0.1508
319.5,0.124
320.0,0.15
320.5,0.1858
321.0,0.1639
321.5,0.157
322.0,0.1691
322.5,0.147
323.0,0.1455
323.5,0.1777
324.0,0.2072
324.5,0.2109
325.0,0.1829
325.5,0.2339
326.0,0.2856
326.5,0.285
327.0,0.2845
327.5,0.2753
328.0,0.2464
328.5,0.2574
329.0,0.3067
329.5,0.3476
330.0,0.3511
330.5,0.2822
331.0,0.2879
331.5,0.2918
332.0,0.3139
332.5,0.31
333.0,0.3095
333.5,0.281
334.0,0.2881
334.5,0.3312
335.0,0.3107
335.5,0.3629
336.0,0.2511
336.5,0.2944
337.0,0.2419
337.5,0.3011
338.0,0.2932
338.5,0.3384
339.0,0.335
339.5,0.3223
340.0,0.3788
340.5,0.3414
341.0,0.333
341.5,0.3058
342.0,0.3655
342.5,0.342
343.0,0.3762
343.5,0.3543
344.0,0.2619
344.5,0.2645
345.0,0.3501
345.5,0.3575
346.0,0.3039
346.5,0.3441
347.0,0.3695
347.5,0.2988
348.0,0.3407
348.5,0.3405
349.0,0.316
349.5,0.3129
350.0,0.3871
350.5,0.4084
351.0,0.3649
351.5,0.3547
352.0,0.381
352.5,0.2974
353.0,0.3746
353.5,0.4006
354.0,0.416
354.5,0.4219
355.0,0.4206
355.5,0.38
356.0,0.3977
356.5,0.3396
357.0,0.2806
357.5,0.3436
358.0,0.2723
358.5,0.2328
359.0,0.3256
359.5,0.415
360.0,0.44
360.5,0.3517
361.0,0.3207
361.5,0.3694
362.0,0.3195
362.5,0.4423
363.0,0.3973
363.5,0.3661
364.0,0.4478
364.5,0.3828
365.0,0.39
365.5,0.4895
366.0,0.5188
366.5,0.4875
367.0,0.4749
367.5,0.4929
368.0,0.4314
368.5,0.4354
369.0,0.4703
369.5,0.5014
370.0,0.5346
370.5,0.415
371.0,0.4435
371.5,0.555
372.0,0.3684
372.5,0.4418
373.0,0.4495
373.5,0.2925
374.0,0.4251
374.5,0.3522
375.0,0.3424
375.5,0.5113
376.0,0.4239
376.5,0.4393
377.0,0.4652
377.5,0.5444
378.0,0.5902
378.5,0.558
379.0,0.4605
379.5,0.4207
380.0,0.4375
380.5,0.53
381.0,0.5313
381.5,0.4212
382.0,0.3742
382.5,0.319
383.0,0.2954
383.5,0.2846
384.0,0.314
384.5,0.462
385.0,0.4582
385.5,0.4268
386.0,0.3656
386.5,0.4804
387.0,0.3992
387.5,0.4485
388.0,0.4142
388.5,0.4095
389.0,0.4421
389.5,0.5356
390.0,0.5376
390.5,0.4948
391.0,0.5826
391.5,0.5943
392.0,0.5007
392.5,0.4483
393.0,0.2495
393.5,0.1814
394.0,0.3692
394.5,0.4695
395.0,0.573
395.5,0.5821
396.0,0.5048
396.5,0.2952
397.0,0.2216
397.5,0.4507
398.0,0.6312
398.5,0.6525
399.0,0.7067
399.5,0.7045
400.0,0.7316
401.0,0.7422
402.0,0.7833
403.0,0.7444
404.0,0.7331
405.0,0.7332
406.0,0.7215
407.0,0.7101
408.0,0.738
409.0,0.79
410.0,0.6905
411.0,0.7481
412.0,0.8038
413.0,0.784
414.0,0.7938
415.0,0.7961
416.0,0.8102
417.0,0.7905
418.0,0.776
419.0,0.7864
420.0,0.7831
421.0,0.8194
422.0,0.779
423.0,0.7611
424.0,0.8051
425.0,0.8038
426.0,0.7832
427.0,0.7687
428.0,0.7489
429.0,0.7095
430.0,0.621
431.0,0.6156
432.0,0.795
433.0,0.7995
434.0,0.7425
435.0,0.7755
436.0,0.874
437.0,0.8624
438.0,0.7854
439.0,0.8124
440.0,0.8384
441.0,0.8689
442.0,0.932
443.0,0.9078
444.0,0.9276
445.0,0.9076
446.0,0.8663
447.0,0.9367
448.0,0.9513
449.0,0.9552
450.0,0.9821
451.0,1.019
452.0,0.9815
453.0,0.9232
454.0,0.9638
455.0,0.9699
456.0,0.993
457.0,1.01
458.0,0.9752
459.0,0.9702
460.0,0.9728
461.0,0.9953
462.0,1.003
463.0,0.9962
464.0,0.9798
465.0,0.9675
466.0,0.9769
467.0,0.9591
468.0,0.9704
469.0,0.9755
470.0,0.9445
471.0,0.9433
472.0,0.994
473.0,0.9811
474.0,0.9825
475.0,0.9909
476.0,0.9613
477.0,0.964
478.0,0.9908
479.0,0.9848
480.0,0.9867
481.0,1.005
482.0,1.01
483.0,0.9983
484.0,0.9778
485.0,0.9317
486.0,0.8145
487.0,0.8536
488.0,0.9365
489.0,0.9394
490.0,0.9884
491.0,0.9714
492.0,0.9173
493.0,0.9474
494.0,0.9569
495.0,0.965
496.0,0.971
497.0,0.9861
498.0,0.9399
499.0,0.952
500.0,0.9243
501.0,0.9073
502.0,0.8945
503.0,0.9309
504.0,0.9072
505.0,0.9398
506.0,0.9702
507.0,0.9232
508.0,0.8944
509.0,0.9195
510.0,0.9147
511.0,0.9392
512.0,0.9494
513.0,0.8986
514.0,0.8925
515.0,0.8836
516.0,0.8815
517.0,0.7832
518.0,0.8234
519.0,0.8637
520.0,0.8951
521.0,0.9036
522.0,0.9044
523.0,0.8881
524.0,0.9199
525.0,0.9307
526.0,0.8891
527.0,0.8378
528.0,0.886
529.0,0.9339
530.0,0.9205
531.0,0.9342
532.0,0.9021
533.0,0.8756
534.0,0.9016
535.0,0.9212
536.0,0.9297
537.0,0.893
538.0,0.9088
539.0,0.9012
540.0,0.864
541.0,0.8697
542.0,0.8969
543.0,0.8875
544.0,0.9029
545.0,0.9001
546.0,0.904
547.0,0.9037
548.0,0.8929
549.0,0.8956
550.0,0.9062
551.0,0.8952
552.0,0.9014
553.0,0.8853
554.0,0.9065
555.0,0.9083
556.0,0.8965
557.0,0.8686
558.0,0.8621
559.0,0.846
560.0,0.8565
561.0,0.8676
562.0,0.8613
563.0,0.8848
564.0,0.8607
565.0,0.8532
566.0,0.8407
567.0,0.8566
568.0,0.8489
569.0,0.8285
570.0,0.8283
571.0,0.8234
572.0,0.8431
573.0,0.8521
574.0,0.8493
575.0,0.8334
576.0,0.8258
577.0,0.8348
578.0,0.8223
579.0,0.8257
580.0,0.8415
581.0,0.8459
582.0,0.862
583.0,0.8642
584.0,0.8717
585.0,0.8504
586.0,0.833
587.0,0.8512
588.0,0.8303
589.0,0.7352
590.0,0.7689
591.0,0.8139
592.0,0.8035
593.0,0.8155
594.0,0.8098
595.0,0.7897
596.0,0.8211
597.0,0.8121
598.0,0.8102
599.0,0.8109
600.0,0.8122
601.0,0.8056
602.0,0.8002
603.0,0.8134
604.0,0.8269
605.0,0.8226
606.0,0.8193
607.0,0.8275
608.0,0.8183
609.0,0.8198
610.0,0.814
611.0,0.8182
612.0,0.8159
613.0,0.8056
614.0,0.7946
615.0,0.812
616.0,0.7853
617.0,0.7837
618.0,0.8139
619.0,0.8056
620.0,0.8107
621.0,0.8115
622.0,0.802
623.0,0.7897
624.0,0.7762
625.0,0.7745
626.0,0.7859
627.0,0.7946
628.0,0.7411
629.0,0.7755
630.0,0.7576
631.0,0.775
632.0,0.7658
633.0,0.7892
634.0,0.7817
635.0,0.7939
636.0,0.7835
637.0,0.7963
638.0,0.8041
639.0,0.7951
640.0,0.7874
641.0,0.787
642.0,0.7834
643.0,0.794
644.0,0.7914
645.0,0.7927
646.0,0.7741
647.0,0.7646
648.0,0.7653
649.0,0.7505
650.0,0.7545
651.0,0.7872
652.0,0.7541
653.0,0.7768
654.0,0.7682
655.0,0.7394
656.0,0.6555
657.0,0.6731
658.0,0.7545
659.0,0.7599
660.0,0.7631
661.0,0.7685
662.0,0.77
663.0,0.7548
664.0,0.7638
665.0,0.7645
666.0,0.7651
667.0,0.7645
668.0,0.7648
669.0,0.7767
670.0,0.7734
671.0,0.7732
672.0,0.7666
673.0,0.7782
674.0,0.7753
675.0,0.7682
676.0,0.7735
677.0,0.7658
678.0,0.768
679.0,0.7557
680.0,0.7617
681.0,0.7567
682.0,0.7557
683.0,0.7543
684.0,0.7505
685.0,0.757
686.0,0.7524
687.0,0.4951
688.0,0.5824
689.0,0.5845
690.0,0.6138
691.0,0.6468
692.0,0.6711
693.0,0.6655
694.0,0.66
695.0,0.6878
696.0,0.6888
697.0,0.7317
698.0,0.7203
699.0,0.7026
700.0,0.6941
701.0,0.6869
702.0,0.6918
703.0,0.6931
704.0,0.7156
705.0,0.7166
706.0,0.7161
707.0,0.7167
708.0,0.7182
709.0,0.7194
710.0,0.7193
711.0,0.7184
712.0,0.7163
713.0,0.709
714.0,0.7117
715.0,0.6891
716.0,0.6894
717.0,0.5963
718.0,0.5475
719.0,0.5013
720.0,0.525
721.0,0.5806
722.0,0.6653
723.0,0.6188
724.0,0.5568
725.0,0.5477
726.0,0.5734
727.0,0.582
728.0,0.5462
729.0,0.5673
730.0,0.6002
731.0,0.5741
732.0,0.6147
733.0,0.6513
734.0,0.6669
735.0,0.653
736.0,0.6522
737.0,0.6548
738.0,0.6653
739.0,0.6522
740.0,0.6693
741.0,0.6627
742.0,0.6634
743.0,0.6803
744.0,0.6784
745.0,0.6786
746.0,0.6817
747.0,0.6832
748.0,0.6818
749.0,0.674
750.0,0.6736
751.0,0.6668
752.0,0.6697
753.0,0.6731
754.0,0.6746
755.0,0.6707
756.0,0.6705
757.0,0.6714
758.0,0.6631
759.0,0.6494
760.0,0.1029
761.0,0.05295
762.0,0.3261
763.0,0.1593
764.0,0.2427
765.0,0.3261
766.0,0.4034
767.0,0.5122
768.0,0.5936
769.0,0.6066
770.0,0.6279
771.0,0.6333
772.0,0.6347
773.0,0.6392
774.0,0.6361
775.0,0.6313
776.0,0.639
777.0,0.6306
778.0,0.6267
779.0,0.6273
780.0,0.6237
781.0,0.6244
782.0,0.6283
783.0,0.6174
784.0,0.6204
785.0,0.6157
786.0,0.6225
787.0,0.6114
788.0,0.6037
789.0,0.6034
790.0,0.587
791.0,0.5924
792.0,0.5881
793.0,0.5785
794.0,0.5888
795.0,0.5987
796.0,0.5798
797.0,0.5805
798.0,0.5979
799.0,0.594
800.0,0.5835
801.0,0.5816
802.0,0.5799
803.0,0.5755
804.0,0.5763
805.0,0.5746
806.0,0.591
807.0,0.5838
808.0,0.5844
809.0,0.5732
810.0,0.5684
811.0,0.5689
812.0,0.5523
813.0,0.5406
814.0,0.4745
815.0,0.4716
816.0,0.4388
817.0,0.447
818.0,0.43
819.0,0.4817
820.0,0.4533
821.0,0.5312
822.0,0.5158
823.0,0.3486
824.0,0.5003
825.0,0.5219
826.0,0.5017
827.0,0.5299
828.0,0.4479
829.0,0.4988
830.0,0.4921
831.0,0.4938
832.0,0.4784
833.0,0.5097
834.0,0.4912
835.0,0.5406
836.0,0.5168
837.0,0.5422
838.0,0.525
839.0,0.5341
840.0,0.5459
841.0,0.538
842.0,0.5394
843.0,0.5393
844.0,0.5317
845.0,0.5498
846.0,0.5475
847.0,0.5373
848.0,0.5339
849.0,0.5187
850.0,0.497
851.0,0.5261
852.0,0.5224
853.0,0.503
854.0,0.4342
855.0,0.4772
856.0,0.5214
857.0,0.5331
858.0,0.5291
859.0,0.5297
860.0,0.5306
861.0,0.5277
862.0,0.536
863.0,0.5487
864.0,0.5213
865.0,0.5167
866.0,0.4646
867.0,0.4849
868.0,0.5276
869.0,0.5167
870.0,0.5314
871.0,0.5242
872.0,0.5223
873.0,0.5213
874.0,0.5151
875.0,0.5047
876.0,0.5099
877.0,0.5151
878.0,0.5206
879.0,0.5126
880.0,0.5016
881.0,0.494
882.0,0.5047
883.0,0.5064
884.0,0.504
885.0,0.5078
886.0,0.4837
887.0,0.4891
888.0,0.4961
889.0,0.502
890.0,0.4975
891.0,0.4968
892.0,0.4821
893.0,0.4665
894.0,0.4493
895.0,0.4234
896.0,0.3984
897.0,0.3408
898.0,0.3727
899.0,0.2817
900.0,0.3825
901.0,0.2953
902.0,0.3489
903.0,0.3516
904.0,0.4459
905.0,0.4301
906.0,0.4021
907.0,0.3244
908.0,0.3312
909.0,0.3598
910.0,0.3163
911.0,0.3384
912.0,0.3541
913.0,0.3209
914.0,0.3185
915.0,0.3454
916.0,0.2918
917.0,0.3725
918.0,0.2991
919.0,0.3798
920.0,0.3848
921.0,0.4004
922.0,0.3565
923.0,0.3869
924.0,0.3652
925.0,0.3573
926.0,0.361
927.0,0.4057
928.0,0.2933
929.0,0.2665
930.0,0.2075
931.0,0.1969
932.0,0.1396
933.0,0.1124
934.0,0.05931
935.0,0.1159
936.0,0.0709
937.0,0.0717
938.0,0.08876
939.0,0.1907
940.0,0.2309
941.0,0.1722
942.0,0.2007
943.0,0.1303
944.0,0.1388
945.0,0.178
946.0,0.08834
947.0,0.1782
948.0,0.1306
949.0,0.2408
950.0,0.0635
951.0,0.2375
952.0,0.1246
953.0,0.1629
954.0,0.202
955.0,0.165
956.0,0.1616
957.0,0.1245
958.0,0.2319
959.0,0.1817
960.0,0.2037
961.0,0.2306
962.0,0.218
963.0,0.253
964.0,0.2312
965.0,0.2522
966.0,0.2518
967.0,0.2506
968.0,0.3421
969.0,0.3567
970.0,0.3268
971.0,0.3768
972.0,0.3599
973.0,0.3107
974.0,0.2945
975.0,0.3067
976.0,0.2898
977.0,0.3327
978.0,0.3148
979.0,0.3306
980.0,0.3103
981.0,0.3747
982.0,0.3573
983.0,0.3425
984.0,0.3873
985.0,0.356
986.0,0.3947
987.0,0.3862
988.0,0.3856
989.0,0.394
990.0,0.3832
991.0,0.3951
992.0,0.3974
993.0,0.3878
994.0,0.3974
995.0,0.397
996.0,0.3951
997.0,0.3958
998.0,0.3939
999.0,0.3925
1000.0,0.3895
1001.0,0.3946
1002.0,0.3829
1003.0,0.3876
1004.0,0.3779
1005.0,0.3643
1006.0,0.3784
1007.0,0.3865
1008.0,0.3843
1009.0,0.382
1010.0,0.3803
1011.0,0.3846
1012.0,0.3811
1013.0,0.3837
1014.0,0.381
1015.0,0.3784
1016.0,0.3767
1017.0,0.3776
1018.0,0.3763
1019.0,0.368
1020.0,0.3743
1021.0,0.3738
1022.0,0.3708
1023.0,0.3747
1024.0,0.3695
1025.0,0.3746
1026.0,0.3729
1027.0,0.372
1028.0,0.3712
1029.0,0.3668
1030.0,0.3694
1031.0,0.3679
1032.0,0.3669
1033.0,0.3614
1034.0,0.3614
1035.0,0.3625
1036.0,0.3644
1037.0,0.3584
1038.0,0.36
1039.0,0.3598
1040.0,0.3583
1041.0,0.3597
1042.0,0.3572
1043.0,0.3561
1044.0,0.3573
1045.0,0.3524
1046.0,0.3485
1047.0,0.3516
1048.0,0.3535
1049.0,0.3522
1050.0,0.3506
1051.0,0.3501
1052.0,0.3486
1053.0,0.3458
1054.0,0.3465
1055.0,0.3467
1056.0,0.3454
1057.0,0.3443
1058.0,0.3358
1059.0,0.3361
1060.0,0.3356
1061.0,0.3351
1062.0,0.3368
1063.0,0.3335
1064.0,0.3374
1065.0,0.3349
1066.0,0.3284
1067.0,0.3326
1068.0,0.3252
1069.0,0.3153
1070.0,0.3259
1071.0,0.3312
1072.0,0.3272
1073.0,0.3225
1074.0,0.3312
1075.0,0.3137
1076.0,0.3308
1077.0,0.3244
1078.0,0.3181
1079.0,0.3257
1080.0,0.3195
1081.0,0.3088
1082.0,0.3145
1083.0,0.3156
1084.0,0.3078
1085.0,0.3203
1086.0,0.291
1087.0,0.3013
1088.0,0.3151
1089.0,0.3047
1090.0,0.2975
1091.0,0.3139
1092.0,0.3133
1093.0,0.2634
1094.0,0.2863
1095.0,0.2747
1096.0,0.2623
1097.0,0.306
1098.0,0.2579
1099.0,0.2694
1100.0,0.2495
1101.0,0.2529
1102.0,0.241
1103.0,0.2382
1104.0,0.2385
1105.0,0.2631
1106.0,0.1975
1107.0,0.2491
1108.0,0.2089
1109.0,0.2097
1110.0,0.2466
1111.0,0.1643
1112.0,0.2083
1113.0,0.1295
1114.0,0.145
1115.0,0.1201
1116.0,0.09401
1117.0,0.03255
1118.0,0.1029
1119.0,0.04942
1120.0,0.06209
1121.0,0.0834
1122.0,0.03368
1123.0,0.05618
1124.0,0.04739
1125.0,0.06223
1126.0,0.02027
1127.0,0.07033
1128.0,0.04054
1129.0,0.04322
1130.0,0.02789
1131.0,0.1372
1132.0,0.1069
1133.0,0.06569
1134.0,0.01567
1135.0,0.005938
1136.0,0.05408
1137.0,0.134
1138.0,0.09402
1139.0,0.1442
1140.0,0.119
1141.0,0.08938
1142.0,0.1036
1143.0,0.1488
1144.0,0.05006
1145.0,0.0634
1146.0,0.06835
1147.0,0.0226
1148.0,0.1287
1149.0,0.1016
1150.0,0.05406
1151.0,0.09327
1152.0,0.1162
1153.0,0.1143
1154.0,0.06126
1155.0,0.1504
1156.0,0.1346
1157.0,0.1523
1158.0,0.1507
1159.0,0.1635
1160.0,0.1387
1161.0,0.1729
1162.0,0.1736
1163.0,0.2377
1164.0,0.2027
1165.0,0.1902
1166.0,0.1896
1167.0,0.2071
1168.0,0.2092
1169.0,0.2145
1170.0,0.234
1171.0,0.2281
1172.0,0.2327
1173.0,0.2335
1174.0,0.1647
1175.0,0.2285
1176.0,0.2522
1177.0,0.2414
1178.0,0.1798
1179.0,0.2543
1180.0,0.2259
1181.0,0.2332
1182.0,0.1593
1183.0,0.2298
1184.0,0.2149
1185.0,0.2069
1186.0,0.2468
1187.0,0.2346
1188.0,0.1618
1189.0,0.2185
1190.0,0.2412
1191.0,0.2282
1192.0,0.2447
1193.0,0.2342
1194.0,0.2416
1195.0,0.2279
1196.0,0.2192
1197.0,0.242
1198.0,0.221
1199.0,0.1869
1200.0,0.2312
1201.0,0.2226
1202.0,0.2216
1203.0,0.2196
1204.0,0.1915
1205.0,0.2271
1206.0,0.2514
1207.0,0.2209
1208.0,0.2177
1209.0,0.2223
1210.0,0.2318
1211.0,0.2204
1212.0,0.2172
1213.0,0.2429
1214.0,0.2226
1215.0,0.2183
1216.0,0.2421
1217.0,0.2356
1218.0,0.2402
1219.0,0.2371
1220.0,0.2404
1221.0,0.2429
1222.0,0.2365
1223.0,0.2342
1224.0,0.2326
1225.0,0.2414
1226.0,0.2431
1227.0,0.2238
1228.0,0.2444
1229.0,0.2431
1230.0,0.2389
1231.0,0.246
1232.0,0.2445
1233.0,0.2357
1234.0,0.2459
1235.0,0.2443
1236.0,0.2461
1237.0,0.2425
1238.0,0.2453
1239.0,0.2421
1240.0,0.243
1241.0,0.2418
1242.0,0.2414
1243.0,0.2394
1244.0,0.2411
1245.0,0.2421
1246.0,0.2407
1247.0,0.2398
1248.0,0.2395
1249.0,0.2403
1250.0,0.2388
1251.0,0.2357
1252.0,0.2358
1253.0,0.2338
1254.0,0.2314
1255.0,0.2356
1256.0,0.2287
1257.0,0.2274
1258.0,0.2318
1259.0,0.223
1260.0,0.2243
1261.0,0.2112
1262.0,0.2045
1263.0,0.2049
1264.0,0.1885
1265.0,0.2036
1266.0,0.1956
1267.0,0.1993
1268.0,0.1885
1269.0,0.1142
1270.0,0.1984
1271.0,0.2105
1272.0,0.2113
1273.0,0.209
1274.0,0.2097
1275.0,0.2128
1276.0,0.215
1277.0,0.2166
1278.0,0.2209
1279.0,0.2189
1280.0,0.2162
1281.0,0.2063
1282.0,0.199
1283.0,0.2143
1284.0,0.2194
1285.0,0.2208
1286.0,0.2239
1287.0,0.2203
1288.0,0.2203
1289.0,0.213
1290.0,0.2184
1291.0,0.2215
1292.0,0.2075
1293.0,0.217
1294.0,0.2155
1295.0,0.2142
1296.0,0.2042
1297.0,0.1928
1298.0,0.2082
1299.0,0.2173
1300.0,0.1829
1301.0,0.1888
1302.0,0.2075
1303.0,0.1807
1304.0,0.1531
1305.0,0.2032
1306.0,0.2031
1307.0,0.1567
1308.0,0.1811
1309.0,0.2014
1310.0,0.1537
1311.0,0.1734
1312.0,0.1685
1313.0,0.1651
1314.0,0.1474
1315.0,0.1452
1316.0,0.1705
1317.0,0.1614
1318.0,0.1758
1319.0,0.1361
1320.0,0.1322
1321.0,0.1544
1322.0,0.1557
1323.0,0.116
1324.0,0.1335
1325.0,0.1679
1326.0,0.1434
1327.0,0.1366
1328.0,0.1174
1329.0,0.08709
1330.0,0.1139
1331.0,0.06744
1332.0,0.07009
1333.0,0.09787
1334.0,0.08357
1335.0,0.1155
1336.0,0.09067
1337.0,0.07982
1338.0,0.08637
1339.0,0.08619
1340.0,0.0842
1341.0,0.08135
1342.0,0.08553
1343.0,0.05616
1344.0,0.03375
1345.0,0.04875
1346.0,0.02311
1347.0,0.02331
1348.0,0.001363
1349.0,0.005045
1350.0,0.005351
1351.0,0.001185
1352.0,0.0002887
1353.0,1.328e-05
1354.0,4.91e-05
1355.0,3.181e-07
1356.0,6.444e-06
1357.0,9.841e-06
1358.0,3.801e-07
1359.0,4.06e-08
1360.0,1.64e-07
1361.0,1.293e-10
1362.0,3.065e-13
1363.0,2.105e-07
1364.0,8.673e-08
1365.0,8.879e-14
1366.0,9.62e-07
1367.0,4.073e-07
1368.0,4.727e-16
1369.0,3.217e-08
1370.0,1.48e-08
1371.0,7.733e-10
1372.0,2.245e-07
1373.0,5.074e-06
1374.0,2.549e-05
1375.0,4.608e-05
1376.0,4.438e-05
1377.0,1.999e-05
1378.0,0.0002023
1379.0,8.388e-06
1380.0,1.151e-05
1381.0,2.879e-07
1382.0,1.985e-07
1383.0,2.802e-09
1384.0,3.536e-08
1385.0,2.035e-07
1386.0,1.683e-07
1387.0,2.519e-05
1388.0,4.99e-07
1389.0,9.338e-05
1390.0,8.016e-05
1391.0,5.268e-05
1392.0,3.347e-06
1393.0,1.853e-05
1394.0,8.43e-06
1395.0,5.69e-08
1396.0,1.956e-10
1397.0,7.156e-06
1398.0,0.0002252
1399.0,0.0001433
1400.0,7.696e-11
1401.0,3.641e-10
1402.0,0.0004464
1403.0,0.0005492
1404.0,0.0001658
1405.0,2.608e-08
1406.0,0.0004158
1407.0,3.783e-05
1408.0,0.0003424
1409.0,0.0001077
1410.0,9.022e-05
1411.0,0.0004851
1412.0,0.0006756
1413.0,0.007665
1414.0,7.181e-05
1415.0,3.344e-05
1416.0,0.01346
1417.0,0.003781
1418.0,0.004247
1419.0,0.0006469
1420.0,0.002589
1421.0,0.00281
1422.0,0.01764
1423.0,0.003343
1424.0,0.00635
1425.0,0.009197
1426.0,0.0108
1427.0,0.02068
1428.0,0.001269
1429.0,0.01505
1430.0,0.02673
1431.0,0.02964
1432.0,0.0009928
1433.0,0.01847
1434.0,0.009205
1435.0,0.008558
1436.0,0.01751
1437.0,0.01344
1438.0,0.005402
1439.0,0.02425
