interpolation:linear
wavelength,value
280.0,3.716e-21
280.5,1.156e-19
281.0,6.088e-19
281.5,4.007e-19
282.0,1.148e-18
282.5,3.011e-18
283.0,9.711e-18
283.5,1.588e-17
284.0,2.567e-16
284.5,7.386e-16
285.0,1.64e-15
285.5,8.065e-15
286.0,3.234e-14
286.5,1.429e-13
287.0,4.047e-13
287.5,1.53e-12
288.0,3.98e-12
288.5,1.345e-11
289.0,3.867e-11
289.5,1.238e-10
290.0,3.563e-10
290.5,7.451e-10
291.0,1.639e-09
291.5,5.009e-09
292.0,1.099e-08
292.5,1.671e-08
293.0,3.974e-08
293.5,1.115e-07
294.0,1.933e-07
294.5,2.505e-07
295.0,4.7e-07
295.5,1.264e-06
296.0,2.532e-06
296.5,3.69e-06
297.0,5.18e-06
297.5,1.474e-05
298.0,2.452e-05
298.5,2.579e-05
299.0,5.953e-05
299.5,0.0001075
300.0,0.0001245
300.5,0.0001908
301.0,0.000382
301.5,0.0006798
302.0,0.000622
302.5,0.001223
303.0,0.002214
303.5,0.002801
304.0,0.00264
304.5,0.003967
305.0,0.006064
305.5,0.006977
306.0,0.006766
306.5,0.008447
307.0,0.01259
307.5,0.0168
308.0,0.01776
308.5,0.02101
309.0,0.02067
309.5,0.02366
310.0,0.02378
310.5,0.03852
311.0,0.04836
311.5,0.0467
312.0,0.04669
312.5,0.05682
313.0,0.06163
313.5,0.05986
314.0,0.07483
314.5,0.06631
315.0,0.08714
315.5,0.07295
316.0,0.06367
316.5,0.09137
317.0,0.1135
317.5,0.1181
318.0,0.09211
318.5,0.1142
319.0,0.1355
319.5,0.1106
320.0,0.1337
320.5,0.167
321.0,0.1485
321.5,0.1424
322.0,0.1521
322.5,0.1323
323.0,0.1316
323.5,0.1615
324.0,0.1885
324.5,0.1916
325.0,0.1656
325.5,0.2128
326.0,0.2602
326.5,0.2603
327.0,0.2596
327.5,0.2509
328.0,0.2237
328.5,0.2348
329.0,0.2808
329.5,0.3186
330.0,0.3216
330.5,0.2577
331.0,0.2627
331.5,0.2669
332.0,0.288
332.5,0.2847
333.0,0.2841
333.5,0.2574
334.0,0.2638
334.5,0.3041
335.0,0.2856
335.5,0.3336
336.0,0.2309
336.5,0.2706
337.0,0.2221
337.5,0.2764
338.0,0.2696
338.5,0.3113
339.0,0.3082
339.5,0.2965
340.0,0.3485
340.5,0.3142
341.0,0.3065
341.5,0.2815
342.0,0.3364
342.5,0.3148
343.0,0.3463
343.5,0.3262
344.0,0.2411
344.5,0.2436
345.0,0.3224
345.5,0.3293
346.0,0.2799
346.5,0.317
347.0,0.3404
347.5,0.2753
348.0,0.3139
348.5,0.3138
349.0,0.2912
349.5,0.2884
350.0,0.3569
350.5,0.3765
351.0,0.3364
351.5,0.327
352.0,0.3513
352.5,0.2742
353.0,0.3455
353.5,0.3695
354.0,0.3837
354.5,0.3892
355.0,0.388
355.5,0.3506
356.0,0.3669
356.5,0.3134
357.0,0.259
357.5,0.3171
358.0,0.2513
358.5,0.2148
359.0,0.3005
359.5,0.3831
360.0,0.4061
360.5,0.3247
361.0,0.2961
361.5,0.341
362.0,0.295
362.5,0.4085
363.0,0.367
363.5,0.3382
364.0,0.4137
364.5,0.3537
365.0,0.3603
365.5,0.4523
366.0,0.4794
366.5,0.4506
367.0,0.4389
367.5,0.4556
368.0,0.3988
368.5,0.4025
369.0,0.4348
369.5,0.4636
370.0,0.4943
370.5,0.3838
371.0,0.4102
371.5,0.5133
372.0,0.3407
372.5,0.4087
373.0,0.4158
373.5,0.2706
374.0,0.3933
374.5,0.3259
375.0,0.3168
375.5,0.4731
376.0,0.3923
376.5,0.4066
377.0,0.4306
377.5,0.5039
378.0,0.5463
378.5,0.5165
379.0,0.4263
379.5,0.3895
380.0,0.405
380.5,0.4907
381.0,0.4919
381.5,0.3901
382.0,0.3465
382.5,0.2955
383.0,0.2737
383.5,0.2637
384.0,0.2909
384.5,0.428
385.0,0.4246
385.5,0.3955
386.0,0.3388
386.5,0.4452
387.0,0.37
387.5,0.4157
388.0,0.3839
388.5,0.3796
389.0,0.4099
389.5,0.4965
390.0,0.4985
390.5,0.4588
391.0,0.5402
391.5,0.5511
392.0,0.4643
392.5,0.4158
393.0,0.2314
393.5,0.1683
394.0,0.3425
394.5,0.4356
395.0,0.5316
395.5,0.5401
396.0,0.4684
396.5,0.2739
397.0,0.2056
397.5,0.4182
398.0,0.5857
398.5,0.6056
399.0,0.656
399.5,0.654
400.0,0.6791
401.0,0.6886
402.0,0.7268
403.0,0.6908
404.0,0.6804
405.0,0.6805
406.0,0.6698
407.0,0.6593
408.0,0.6852
409.0,0.7336
410.0,0.6413
411.0,0.6949
412.0,0.7467
413.0,0.7283
414.0,0.7375
415.0,0.7398
416.0,0.753
417.0,0.7347
418.0,0.7214
419.0,0.7311
420.0,0.7281
421.0,0.7619
422.0,0.7244
423.0,0.7078
424.0,0.7488
425.0,0.7476
426.0,0.7286
427.0,0.7151
428.0,0.6968
429.0,0.6602
430.0,0.578
431.0,0.5729
432.0,0.74
433.0,0.7442
434.0,0.6912
435.0,0.722
436.0,0.8137
437.0,0.8031
438.0,0.7315
439.0,0.7565
440.0,0.7808
441.0,0.8093
442.0,0.8681
443.0,0.8456
444.0,0.8641
445.0,0.8455
446.0,0.8072
447.0,0.8729
448.0,0.8865
449.0,0.8903
450.0,0.9153
451.0,0.9494
452.0,0.9149
453.0,0.8607
454.0,0.8987
455.0,0.9043
456.0,0.9259
457.0,0.9414
458.0,0.9093
459.0,0.9047
460.0,0.9071
461.0,0.9281
462.0,0.9354
463.0,0.929
464.0,0.9139
465.0,0.9026
466.0,0.9115
467.0,0.8948
468.0,0.9054
469.0,0.9102
470.0,0.8812
471.0,0.8801
472.0,0.9274
473.0,0.9154
474.0,0.9166
475.0,0.9244
476.0,0.8966
477.0,0.8991
478.0,0.9241
479.0,0.9186
480.0,0.9205
481.0,0.9378
482.0,0.9429
483.0,0.9317
484.0,0.9127
485.0,0.8697
486.0,0.7604
487.0,0.797
488.0,0.8744
489.0,0.8771
490.0,0.9228
491.0,0.907
492.0,0.8566
493.0,0.8846
494.0,0.8936
495.0,0.9012
496.0,0.9068
497.0,0.9208
498.0,0.8778
499.0,0.889
500.0,0.863
501.0,0.8471
502.0,0.835
503.0,0.8688
504.0,0.8462
505.0,0.877
506.0,0.9053
507.0,0.8615
508.0,0.8348
509.0,0.8584
510.0,0.8539
511.0,0.877
512.0,0.8866
513.0,0.8392
514.0,0.8335
515.0,0.8252
516.0,0.8231
517.0,0.7315
518.0,0.769
519.0,0.8066
520.0,0.8359
521.0,0.8438
522.0,0.8445
523.0,0.8293
524.0,0.8589
525.0,0.8688
526.0,0.8299
527.0,0.782
528.0,0.8269
529.0,0.8716
530.0,0.859
531.0,0.8717
532.0,0.8417
533.0,0.8171
534.0,0.8413
535.0,0.8597
536.0,0.8677
537.0,0.8335
538.0,0.8483
539.0,0.8411
540.0,0.8064
541.0,0.8116
542.0,0.8369
543.0,0.8282
544.0,0.8425
545.0,0.8399
546.0,0.8434
547.0,0.8432
548.0,0.8332
549.0,0.8357
550.0,0.8457
551.0,0.8354
552.0,0.8412
553.0,0.8262
554.0,0.8459
555.0,0.8476
556.0,0.8365
557.0,0.8105
558.0,0.8043
559.0,0.7892
560.0,0.799
561.0,0.8092
562.0,0.8033
563.0,0.8251
564.0,0.8025
565.0,0.7955
566.0,0.7837
567.0,0.7984
568.0,0.791
569.0,0.7715
570.0,0.7714
571.0,0.767
572.0,0.7849
573.0,0.7933
574.0,0.7906
575.0,0.7757
576.0,0.7687
577.0,0.7771
578.0,0.7656
579.0,0.7689
580.0,0.784
581.0,0.7884
582.0,0.8037
583.0,0.8059
584.0,0.8131
585.0,0.7933
586.0,0.777
587.0,0.7938
588.0,0.7737
589.0,0.6839
590.0,0.7153
591.0,0.7579
592.0,0.7478
593.0,0.7596
594.0,0.754
595.0,0.7348
596.0,0.7651
597.0,0.7565
598.0,0.7549
599.0,0.7558
600.0,0.7572
601.0,0.7513
602.0,0.7462
603.0,0.7587
604.0,0.7713
605.0,0.7674
606.0,0.7644
607.0,0.7721
608.0,0.7637
609.0,0.7652
610.0,0.7598
611.0,0.7639
612.0,0.7617
613.0,0.7522
614.0,0.742
615.0,0.7583
616.0,0.7334
617.0,0.732
618.0,0.7603
619.0,0.7526
620.0,0.7574
621.0,0.758
622.0,0.749
623.0,0.7375
624.0,0.7249
625.0,0.7233
626.0,0.734
627.0,0.7419
628.0,0.6892
629.0,0.7231
630.0,0.7063
631.0,0.7235
632.0,0.7151
633.0,0.7373
634.0,0.7306
635.0,0.7421
636.0,0.7325
637.0,0.7447
638.0,0.7522
639.0,0.7439
640.0,0.7368
641.0,0.7365
642.0,0.7333
643.0,0.7432
644.0,0.7409
645.0,0.742
646.0,0.7243
647.0,0.7147
648.0,0.7153
649.0,0.7014
650.0,0.706
651.0,0.7369
652.0,0.7048
653.0,0.7272
654.0,0.7192
655.0,0.6917
656.0,0.6136
657.0,0.6301
658.0,0.7066
659.0,0.7118
660.0,0.7149
661.0,0.7199
662.0,0.7211
663.0,0.707
664.0,0.7157
665.0,0.7166
666.0,0.7172
667.0,0.7167
668.0,0.7172
669.0,0.7284
670.0,0.7253
671.0,0.7252
672.0,0.719
673.0,0.7299
674.0,0.7273
675.0,0.7207
676.0,0.7257
677.0,0.7185
678.0,0.7206
679.0,0.709
680.0,0.7147
681.0,0.71
682.0,0.7091
683.0,0.7078
684.0,0.7043
685.0,0.7104
686.0,0.7061
687.0,0.4529
688.0,0.5382
689.0,0.5404
690.0,0.5694
691.0,0.6022
692.0,0.6264
693.0,0.6211
694.0,0.616
695.0,0.6434
696.0,0.6444
697.0,0.6862
698.0,0.6755
699.0,0.6578
700.0,0.6497
701.0,0.6426
702.0,0.6477
703.0,0.6489
704.0,0.6707
705.0,0.6717
706.0,0.6714
707.0,0.6721
708.0,0.6735
709.0,0.6751
710.0,0.6747
711.0,0.674
712.0,0.6723
713.0,0.6652
714.0,0.6678
715.0,0.6461
716.0,0.6463
717.0,0.5548
718.0,0.5087
719.0,0.4655
720.0,0.4871
721.0,0.5412
722.0,0.623
723.0,0.578
724.0,0.5185
725.0,0.5093
726.0,0.5335
727.0,0.5426
728.0,0.5078
729.0,0.5289
730.0,0.5595
731.0,0.5348
732.0,0.5742
733.0,0.6099
734.0,0.625
735.0,0.6117
736.0,0.6109
737.0,0.6133
738.0,0.6242
739.0,0.6119
740.0,0.6283
741.0,0.6223
742.0,0.6232
743.0,0.6391
744.0,0.6375
745.0,0.6377
746.0,0.6406
747.0,0.6421
748.0,0.6408
749.0,0.6335
750.0,0.6331
751.0,0.6267
752.0,0.6294
753.0,0.6326
754.0,0.634
755.0,0.6304
756.0,0.6302
757.0,0.6311
758.0,0.6232
759.0,0.6097
760.0,0.08654
761.0,0.04282
762.0,0.2942
763.0,0.1375
764.0,0.2149
765.0,0.2941
766.0,0.3694
767.0,0.4748
768.0,0.5551
769.0,0.5684
770.0,0.5895
771.0,0.5951
772.0,0.5966
773.0,0.6009
774.0,0.598
775.0,0.5935
776.0,0.6007
777.0,0.5928
778.0,0.5892
779.0,0.5897
780.0,0.5864
781.0,0.5871
782.0,0.5907
783.0,0.5805
784.0,0.5833
785.0,0.5789
786.0,0.5852
787.0,0.5743
788.0,0.5668
789.0,0.5665
790.0,0.5504
791.0,0.5562
792.0,0.5522
793.0,0.5432
794.0,0.5535
795.0,0.5626
796.0,0.5439
797.0,0.5445
798.0,0.5618
799.0,0.5579
800.0,0.5479
801.0,0.5459
802.0,0.5443
803.0,0.54
804.0,0.5409
805.0,0.5396
806.0,0.5554
807.0,0.5486
808.0,0.5491
809.0,0.5383
810.0,0.5335
811.0,0.5334
812.0,0.5172
813.0,0.5059
814.0,0.442
815.0,0.4394
816.0,0.4086
817.0,0.4164
818.0,0.4001
819.0,0.45
820.0,0.4228
821.0,0.498
822.0,0.4831
823.0,0.3225
824.0,0.4677
825.0,0.4892
826.0,0.4695
827.0,0.4967
828.0,0.4175
829.0,0.4669
830.0,0.4604
831.0,0.4621
832.0,0.4473
833.0,0.4777
834.0,0.4596
835.0,0.5075
836.0,0.4841
837.0,0.509
838.0,0.4924
839.0,0.5015
840.0,0.5127
841.0,0.5051
842.0,0.5068
843.0,0.5071
844.0,0.4997
845.0,0.517
846.0,0.5149
847.0,0.5054
848.0,0.502
849.0,0.4878
850.0,0.4674
851.0,0.4945
852.0,0.4912
853.0,0.473
854.0,0.4082
855.0,0.4488
856.0,0.4903
857.0,0.5014
858.0,0.4977
859.0,0.4982
860.0,0.4992
861.0,0.4964
862.0,0.5043
863.0,0.5162
864.0,0.4904
865.0,0.4861
866.0,0.4371
867.0,0.4562
868.0,0.4964
869.0,0.4861
870.0,0.5
871.0,0.4932
872.0,0.4915
873.0,0.4905
874.0,0.4846
875.0,0.4748
876.0,0.4797
877.0,0.4846
878.0,0.4898
879.0,0.4823
880.0,0.472
881.0,0.4647
882.0,0.4747
883.0,0.4764
884.0,0.4741
885.0,0.4777
886.0,0.4547
887.0,0.46
888.0,0.4665
889.0,0.4723
890.0,0.4677
891.0,0.4673
892.0,0.453
893.0,0.438
894.0,0.4209
895.0,0.3955
896.0,0.3718
897.0,0.3166
898.0,0.347
899.0,0.2607
900.0,0.357
901.0,0.2733
902.0,0.3251
903.0,0.3269
904.0,0.4177
905.0,0.4024
906.0,0.3759
907.0,0.3011
908.0,0.3078
909.0,0.3353
910.0,0.293
911.0,0.3146
912.0,0.3295
913.0,0.2972
914.0,0.2953
915.0,0.3202
916.0,0.2702
917.0,0.3467
918.0,0.2768
919.0,0.354
920.0,0.3598
921.0,0.3744
922.0,0.3321
923.0,0.3619
924.0,0.34
925.0,0.3326
926.0,0.3361
927.0,0.3789
928.0,0.2703
929.0,0.2447
930.0,0.1889
931.0,0.1794
932.0,0.1257
933.0,0.1004
934.0,0.05136
935.0,0.1042
936.0,0.06269
937.0,0.0633
938.0,0.07876
939.0,0.1738
940.0,0.2116
941.0,0.1563
942.0,0.183
943.0,0.1177
944.0,0.1265
945.0,0.1619
946.0,0.07879
947.0,0.1616
948.0,0.1183
949.0,0.2199
950.0,0.05578
951.0,0.2172
952.0,0.112
953.0,0.1477
954.0,0.1846
955.0,0.1498
956.0,0.1478
957.0,0.1118
958.0,0.214
959.0,0.166
960.0,0.1861
961.0,0.212
962.0,0.2002
963.0,0.2336
964.0,0.2131
965.0,0.2329
966.0,0.2323
967.0,0.231
968.0,0.3196
969.0,0.3329
970.0,0.3045
971.0,0.3529
972.0,0.3367
973.0,0.2888
974.0,0.2735
975.0,0.2856
976.0,0.2688
977.0,0.3106
978.0,0.2931
979.0,0.3084
980.0,0.2891
981.0,0.351
982.0,0.334
983.0,0.3197
984.0,0.3635
985.0,0.3327
986.0,0.371
987.0,0.3624
988.0,0.3618
989.0,0.3706
990.0,0.3596
991.0,0.3716
992.0,0.3738
993.0,0.3642
994.0,0.3739
995.0,0.3736
996.0,0.3717
997.0,0.3724
998.0,0.3705
999.0,0.3692
1000.0,0.3663
1001.0,0.3713
1002.0,0.3598
1003.0,0.3646
1004.0,0.3554
1005.0,0.3428
1006.0,0.356
1007.0,0.3636
1008.0,0.3614
1009.0,0.3593
1010.0,0.3576
1011.0,0.3618
1012.0,0.3584
1013.0,0.361
1014.0,0.3585
1015.0,0.3561
1016.0,0.3544
1017.0,0.3553
1018.0,0.3541
1019.0,0.3461
1020.0,0.3522
1021.0,0.3518
1022.0,0.3489
1023.0,0.3525
1024.0,0.3475
1025.0,0.3525
1026.0,0.3508
1027.0,0.35
1028.0,0.3493
1029.0,0.3451
1030.0,0.3476
1031.0,0.3462
1032.0,0.3452
1033.0,0.34
1034.0,0.34
1035.0,0.3411
1036.0,0.3428
1037.0,0.3373
1038.0,0.3387
1039.0,0.3385
1040.0,0.3371
1041.0,0.3384
1042.0,0.3361
1043.0,0.335
1044.0,0.3361
1045.0,0.3315
1046.0,0.3278
1047.0,0.3308
1048.0,0.3325
1049.0,0.3313
1050.0,0.3297
1051.0,0.3292
1052.0,0.3278
1053.0,0.3252
1054.0,0.3258
1055.0,0.3259
1056.0,0.3247
1057.0,0.3236
1058.0,0.3156
1059.0,0.3159
1060.0,0.3153
1061.0,0.3149
1062.0,0.3165
1063.0,0.3133
1064.0,0.317
1065.0,0.3146
1066.0,0.3085
1067.0,0.3124
1068.0,0.3055
1069.0,0.2961
1070.0,0.3061
1071.0,0.3113
1072.0,0.3073
1073.0,0.303
1074.0,0.3113
1075.0,0.2944
1076.0,0.311
1077.0,0.3047
1078.0,0.2986
1079.0,0.3062
1080.0,0.3
1081.0,0.2897
1082.0,0.2955
1083.0,0.2967
1084.0,0.2887
1085.0,0.3008
1086.0,0.2725
1087.0,0.2827
1088.0,0.2961
1089.0,0.2858
1090.0,0.2788
1091.0,0.2948
1092.0,0.2944
1093.0,0.246
1094.0,0.2689
1095.0,0.2567
1096.0,0.2447
1097.0,0.2876
1098.0,0.2405
1099.0,0.2514
1100.0,0.2322
1101.0,0.2356
1102.0,0.224
1103.0,0.2211
1104.0,0.2215
1105.0,0.2453
1106.0,0.1817
1107.0,0.2319
1108.0,0.193
1109.0,0.194
1110.0,0.2293
1111.0,0.1508
1112.0,0.1928
1113.0,0.1179
1114.0,0.1322
1115.0,0.1094
1116.0,0.08449
1117.0,0.0281
1118.0,0.09285
1119.0,0.04362
1120.0,0.05469
1121.0,0.07404
1122.0,0.02907
1123.0,0.04953
1124.0,0.04177
1125.0,0.0551
1126.0,0.01714
1127.0,0.06234
1128.0,0.03504
1129.0,0.03748
1130.0,0.0239
1131.0,0.1238
1132.0,0.09609
1133.0,0.05786
1134.0,0.01319
1135.0,0.005039
1136.0,0.0472
1137.0,0.1206
1138.0,0.08438
1139.0,0.1319
1140.0,0.1079
1141.0,0.08024
1142.0,0.09351
1143.0,0.1353
1144.0,0.04441
1145.0,0.05586
1146.0,0.0602
1147.0,0.01909
1148.0,0.1169
1149.0,0.09159
1150.0,0.04812
1151.0,0.0837
1152.0,0.1051
1153.0,0.1041
1154.0,0.05392
1155.0,0.1375
1156.0,0.1226
1157.0,0.1396
1158.0,0.138
1159.0,0.1503
1160.0,0.127
1161.0,0.1597
1162.0,0.1602
1163.0,0.2217
1164.0,0.1882
1165.0,0.1757
1166.0,0.1759
1167.0,0.1925
1168.0,0.1942
1169.0,0.1994
1170.0,0.2183
1171.0,0.2127
1172.0,0.2174
1173.0,0.2178
1174.0,0.1519
1175.0,0.2135
1176.0,0.2366
1177.0,0.2259
1178.0,0.167
1179.0,0.2385
1180.0,0.2109
1181.0,0.2178
1182.0,0.1474
1183.0,0.2149
1184.0,0.2004
1185.0,0.1925
1186.0,0.2311
1187.0,0.2192
1188.0,0.1495
1189.0,0.2041
1190.0,0.2259
1191.0,0.2129
1192.0,0.2293
1193.0,0.2192
1194.0,0.2262
1195.0,0.2129
1196.0,0.2044
1197.0,0.2269
1198.0,0.2069
1199.0,0.1737
1200.0,0.2163
1201.0,0.2078
1202.0,0.2072
1203.0,0.2052
1204.0,0.1783
1205.0,0.2127
1206.0,0.2361
1207.0,0.2064
1208.0,0.2038
1209.0,0.2082
1210.0,0.2174
1211.0,0.2062
1212.0,0.2026
1213.0,0.2278
1214.0,0.2079
1215.0,0.2038
1216.0,0.2272
1217.0,0.2208
1218.0,0.2253
1219.0,0.2223
1220.0,0.2256
1221.0,0.2281
1222.0,0.2219
1223.0,0.2197
1224.0,0.218
1225.0,0.2266
1226.0,0.2284
1227.0,0.2096
1228.0,0.2298
1229.0,0.2284
1230.0,0.2243
1231.0,0.2314
1232.0,0.23
1233.0,0.2212
1234.0,0.2314
1235.0,0.2298
1236.0,0.2316
1237.0,0.2279
1238.0,0.2308
1239.0,0.2278
1240.0,0.2287
1241.0,0.2274
1242.0,0.2271
1243.0,0.2253
1244.0,0.2268
1245.0,0.2278
1246.0,0.2265
1247.0,0.2256
1248.0,0.2253
1249.0,0.2261
1250.0,0.2247
1251.0,0.2217
1252.0,0.2219
1253.0,0.2198
1254.0,0.2173
1255.0,0.2216
1256.0,0.2148
1257.0,0.2135
1258.0,0.2179
1259.0,0.2091
1260.0,0.2103
1261.0,0.1974
1262.0,0.1908
1263.0,0.1912
1264.0,0.1751
1265.0,0.19
1266.0,0.182
1267.0,0.1857
1268.0,0.1752
1269.0,0.1029
1270.0,0.1849
1271.0,0.1968
1272.0,0.1976
1273.0,0.1954
1274.0,0.1962
1275.0,0.1993
1276.0,0.2014
1277.0,0.203
1278.0,0.2074
1279.0,0.2055
1280.0,0.2029
1281.0,0.1938
1282.0,0.1871
1283.0,0.2014
1284.0,0.2062
1285.0,0.2076
1286.0,0.2106
1287.0,0.207
1288.0,0.207
1289.0,0.1998
1290.0,0.2053
1291.0,0.2083
1292.0,0.1944
1293.0,0.2039
1294.0,0.2024
1295.0,0.201
1296.0,0.1911
1297.0,0.1801
1298.0,0.1952
1299.0,0.2043
1300.0,0.1707
1301.0,0.1764
1302.0,0.1946
1303.0,0.1687
1304.0,0.1417
1305.0,0.1905
1306.0,0.1903
1307.0,0.1456
1308.0,0.1693
1309.0,0.1886
1310.0,0.1427
1311.0,0.1618
1312.0,0.1571
1313.0,0.1536
1314.0,0.1368
1315.0,0.1345
1316.0,0.1589
1317.0,0.1502
1318.0,0.1642
1319.0,0.1257
1320.0,0.1224
1321.0,0.1434
1322.0,0.1444
1323.0,0.1065
1324.0,0.1234
1325.0,0.1564
1326.0,0.1328
1327.0,0.1263
1328.0,0.1082
1329.0,0.07927
1330.0,0.1042
1331.0,0.06054
1332.0,0.0633
1333.0,0.08862
1334.0,0.07633
1335.0,0.106
1336.0,0.08254
1337.0,0.07239
1338.0,0.07831
1339.0,0.07831
1340.0,0.07683
1341.0,0.07347
1342.0,0.07732
1343.0,0.04938
1344.0,0.02979
1345.0,0.04304
1346.0,0.01958
1347.0,0.01959
1348.0,0.001043
1349.0,0.003957
1350.0,0.004275
1351.0,0.0008681
1352.0,0.0001911
1353.0,7.982e-06
1354.0,3.158e-05
1355.0,1.657e-07
1356.0,3.853e-06
1357.0,5.891e-06
1358.0,1.998e-07
1359.0,1.811e-08
1360.0,8.131e-08
1361.0,4.582e-11
1362.0,9.523e-14
1363.0,9.82e-08
1364.0,4.054e-08
1365.0,2.289e-14
1366.0,4.683e-07
1367.0,2.062e-07
1368.0,8.634e-17
1369.0,1.495e-08
1370.0,6.418e-09
1371.0,3.102e-10
1372.0,1.14e-07
1373.0,2.863e-06
1374.0,1.549e-05
1375.0,2.772e-05
1376.0,2.868e-05
1377.0,1.273e-05
1378.0,0.0001321
1379.0,5.337e-06
1380.0,6.971e-06
1381.0,1.68e-07
1382.0,9.873e-08
1383.0,1.324e-09
1384.0,1.595e-08
1385.0,1.098e-07
1386.0,7.963e-08
1387.0,1.452e-05
1388.0,2.918e-07
1389.0,5.876e-05
1390.0,5.023e-05
1391.0,3.261e-05
1392.0,2.037e-06
1393.0,1.171e-05
1394.0,4.693e-06
1395.0,2.939e-08
1396.0,7.257e-11
1397.0,4.395e-06
1398.0,0.0001455
1399.0,9.296e-05
1400.0,2.606e-11
1401.0,1.395e-10
1402.0,0.0003231
1403.0,0.000389
1404.0,0.0001162
1405.0,1.27e-08
1406.0,0.000281
1407.0,2.649e-05
1408.0,0.0002331
1409.0,6.904e-05
1410.0,6.056e-05
1411.0,0.0003451
1412.0,0.0004946
1413.0,0.006065
1414.0,4.861e-05
1415.0,2.204e-05
1416.0,0.01123
1417.0,0.003002
1418.0,0.003325
1419.0,0.0005006
1420.0,0.002022
1421.0,0.002211
1422.0,0.01473
1423.0,0.002758
1424.0,0.005286
1425.0,0.007566
1426.0,0.009087
1427.0,0.01783
1428.0,0.0009614
1429.0,0.01276
1430.0,0.02325
1431.0,0.02592
1432.0,0.0007496
1433.0,0.01597
1434.0,0.007867
1435.0,0.007007
1436.0,0.01483
1437.0,0.0114
1438.0,0.004457
