interpolation:linear
wavelength,value
280.0,2.1430000000000002e-21
280.5,6.776e-20
281.0,3.586e-19
281.5,4.012e-19
282.0,1.025e-18
282.5,2.65e-18
283.0,8.501e-18
283.5,1.388e-17
284.0,2.256e-16
284.5,6.517e-16
285.0,1.431e-15
285.5,6.88e-15
286.0,2.746e-14
286.5,1.209e-13
287.0,3.42e-13
287.5,1.295e-12
288.0,3.589e-12
288.5,1.169e-11
289.0,3.272e-11
289.5,1.024e-10
290.0,2.903e-10
290.5,6.005e-10
291.0,1.306e-09
291.5,3.793e-09
292.0,7.856e-09
292.5,1.168e-08
293.0,2.695e-08
293.5,7.224e-08
294.0,1.209e-07
294.5,1.567e-07
295.0,2.831e-07
295.5,7.023e-07
296.0,1.405e-06
296.5,2.048e-06
297.0,2.879e-06
297.5,8.23e-06
298.0,1.378e-05
298.5,1.46e-05
299.0,3.396e-05
299.5,6.243e-05
300.0,7.313e-05
300.5,0.0001136
301.0,0.0002335
301.5,0.0004277
302.0,0.0003986
302.5,0.0007916
303.0,0.001453
303.5,0.001856
304.0,0.001762
304.5,0.0027
305.0,0.004241
305.5,0.004965
306.0,0.004847
306.5,0.006118
307.0,0.009346
307.5,0.01277
308.0,0.01355
308.5,0.01621
309.0,0.01605
309.5,0.01864
310.0,0.01886
310.5,0.03066
311.0,0.03871
311.5,0.03747
312.0,0.03793
312.5,0.04652
313.0,0.05068
313.5,0.04904
314.0,0.06189
314.5,0.05555
315.0,0.07318
315.5,0.06088
316.0,0.05369
316.5,0.07774
317.0,0.09652
317.5,0.1002
318.0,0.07864
318.5,0.09866
319.0,0.1177
319.5,0.09519
320.0,0.1149
320.5,0.1453
321.0,0.1306
321.5,0.1253
322.0,0.1323
322.5,0.1152
323.0,0.1155
323.5,0.1427
324.0,0.1667
324.5,0.1689
325.0,0.1455
325.5,0.1881
326.0,0.2303
326.5,0.2314
327.0,0.2304
327.5,0.2223
328.0,0.1973
328.5,0.2083
329.0,0.2503
329.5,0.2845
330.0,0.2868
330.5,0.229
331.0,0.2332
331.5,0.2375
332.0,0.2574
332.5,0.255
333.0,0.2541
333.5,0.2296
334.0,0.2352
334.5,0.2721
335.0,0.256
335.5,0.2991
336.0,0.2071
336.5,0.2424
337.0,0.1987
337.5,0.2471
338.0,0.2418
338.5,0.2792
339.0,0.2765
339.5,0.2661
340.0,0.3127
340.5,0.282
341.0,0.2751
341.5,0.2527
342.0,0.3021
342.5,0.2828
343.0,0.311
343.5,0.2929
344.0,0.2165
344.5,0.2187
345.0,0.2896
345.5,0.2959
346.0,0.2516
346.5,0.285
347.0,0.306
347.5,0.2474
348.0,0.2822
348.5,0.2822
349.0,0.2619
349.5,0.2594
350.0,0.321
350.5,0.3387
351.0,0.3026
351.5,0.2941
352.0,0.3161
352.5,0.2468
353.0,0.311
353.5,0.3326
354.0,0.3454
354.5,0.3504
355.0,0.3493
355.5,0.3157
356.0,0.3304
356.5,0.2822
357.0,0.2332
357.5,0.2856
358.0,0.2264
358.5,0.1935
359.0,0.2707
359.5,0.3451
360.0,0.3659
360.5,0.2925
361.0,0.2668
361.5,0.3074
362.0,0.266
362.5,0.3683
363.0,0.3309
363.5,0.305
364.0,0.3731
364.5,0.319
365.0,0.325
365.5,0.4081
366.0,0.4326
366.5,0.4066
367.0,0.3961
367.5,0.4112
368.0,0.36
368.5,0.3634
369.0,0.3925
369.5,0.4185
370.0,0.4463
370.5,0.3466
371.0,0.3704
371.5,0.4636
372.0,0.3078
372.5,0.3692
373.0,0.3757
373.5,0.2445
374.0,0.3554
374.5,0.2945
375.0,0.2863
375.5,0.4276
376.0,0.3546
376.5,0.3675
377.0,0.3893
377.5,0.4556
378.0,0.494
378.5,0.467
379.0,0.3855
379.5,0.3522
380.0,0.3663
380.5,0.4438
381.0,0.4449
381.5,0.3529
382.0,0.3135
382.5,0.2674
383.0,0.2477
383.5,0.2386
384.0,0.2633
384.5,0.3874
385.0,0.3843
385.5,0.3581
386.0,0.3068
386.5,0.4032
387.0,0.3351
387.5,0.3765
388.0,0.3477
388.5,0.3439
389.0,0.3713
389.5,0.4498
390.0,0.4516
390.5,0.4158
391.0,0.4896
391.5,0.4995
392.0,0.4208
392.5,0.3769
393.0,0.2098
393.5,0.1526
394.0,0.3105
394.5,0.3949
395.0,0.482
395.5,0.4898
396.0,0.4248
396.5,0.2484
397.0,0.1865
397.5,0.3794
398.0,0.5314
398.5,0.5494
399.0,0.5952
399.5,0.5934
400.0,0.6163
401.0,0.6244
402.0,0.6592
403.0,0.6266
404.0,0.6173
405.0,0.6175
406.0,0.6079
407.0,0.5984
408.0,0.622
409.0,0.666
410.0,0.5823
411.0,0.6311
412.0,0.6783
413.0,0.6616
414.0,0.6701
415.0,0.6723
416.0,0.6844
417.0,0.6679
418.0,0.6558
419.0,0.6647
420.0,0.662
421.0,0.6929
422.0,0.6588
423.0,0.6438
424.0,0.6812
425.0,0.6802
426.0,0.663
427.0,0.6509
428.0,0.6342
429.0,0.6011
430.0,0.5263
431.0,0.5217
432.0,0.6739
433.0,0.6779
434.0,0.6296
435.0,0.6576
436.0,0.7414
437.0,0.7318
438.0,0.6667
439.0,0.6894
440.0,0.7116
441.0,0.7377
442.0,0.7914
443.0,0.7708
444.0,0.7879
445.0,0.7709
446.0,0.7361
447.0,0.7962
448.0,0.8085
449.0,0.8122
450.0,0.8352
451.0,0.8664
452.0,0.8349
453.0,0.7855
454.0,0.8203
455.0,0.8255
456.0,0.8453
457.0,0.8595
458.0,0.8301
459.0,0.8259
460.0,0.8281
461.0,0.8473
462.0,0.8541
463.0,0.8483
464.0,0.8347
465.0,0.8245
466.0,0.8328
467.0,0.8175
468.0,0.8272
469.0,0.8316
470.0,0.8051
471.0,0.8042
472.0,0.8474
473.0,0.8364
474.0,0.8374
475.0,0.8444
476.0,0.8189
477.0,0.821
478.0,0.8439
479.0,0.839
480.0,0.8408
481.0,0.8568
482.0,0.8616
483.0,0.8515
484.0,0.8343
485.0,0.7951
486.0,0.6953
487.0,0.7289
488.0,0.7996
489.0,0.802
490.0,0.844
491.0,0.8296
492.0,0.7835
493.0,0.8092
494.0,0.8174
495.0,0.8244
496.0,0.8295
497.0,0.8423
498.0,0.8029
499.0,0.8131
500.0,0.7893
501.0,0.7746
502.0,0.7634
503.0,0.7941
504.0,0.7727
505.0,0.8014
506.0,0.8273
507.0,0.7872
508.0,0.7631
509.0,0.7848
510.0,0.7809
511.0,0.802
512.0,0.8109
513.0,0.7676
514.0,0.7624
515.0,0.7548
516.0,0.753
517.0,0.6691
518.0,0.7034
519.0,0.7378
520.0,0.7646
521.0,0.7718
522.0,0.7724
523.0,0.7585
524.0,0.7854
525.0,0.7944
526.0,0.7588
527.0,0.7148
528.0,0.7558
529.0,0.7965
530.0,0.7849
531.0,0.7965
532.0,0.7691
533.0,0.7465
534.0,0.7687
535.0,0.7856
536.0,0.793
537.0,0.7618
538.0,0.7753
539.0,0.7688
540.0,0.737
541.0,0.7416
542.0,0.7647
543.0,0.7569
544.0,0.7697
545.0,0.7674
546.0,0.7705
547.0,0.7704
548.0,0.7613
549.0,0.7637
550.0,0.7728
551.0,0.7635
552.0,0.7688
553.0,0.755
554.0,0.773
555.0,0.7745
556.0,0.7644
557.0,0.7405
558.0,0.7348
559.0,0.7208
560.0,0.7297
561.0,0.739
562.0,0.7335
563.0,0.7532
564.0,0.7325
565.0,0.726
566.0,0.7152
567.0,0.7285
568.0,0.7214
569.0,0.703
570.0,0.703
571.0,0.6991
572.0,0.7151
573.0,0.7226
574.0,0.7201
575.0,0.7063
576.0,0.6999
577.0,0.7077
578.0,0.6974
579.0,0.7007
580.0,0.7149
581.0,0.7193
582.0,0.7335
583.0,0.7358
584.0,0.7425
585.0,0.7245
586.0,0.7096
587.0,0.7248
588.0,0.7057
589.0,0.6222
590.0,0.651
591.0,0.6906
592.0,0.6808
593.0,0.6923
594.0,0.6869
595.0,0.6689
596.0,0.6977
597.0,0.6895
598.0,0.6885
599.0,0.6894
600.0,0.6911
601.0,0.6859
602.0,0.6813
603.0,0.6928
604.0,0.7044
605.0,0.7009
606.0,0.6983
607.0,0.7055
608.0,0.6979
609.0,0.6994
610.0,0.6946
611.0,0.6984
612.0,0.6965
613.0,0.6879
614.0,0.6787
615.0,0.6937
616.0,0.671
617.0,0.6698
618.0,0.6957
619.0,0.6887
620.0,0.6931
621.0,0.6936
622.0,0.6852
623.0,0.6746
624.0,0.6632
625.0,0.6618
626.0,0.6715
627.0,0.6785
628.0,0.6269
629.0,0.6601
630.0,0.6446
631.0,0.6615
632.0,0.654
633.0,0.6748
634.0,0.669
635.0,0.6798
636.0,0.6712
637.0,0.6825
638.0,0.6896
639.0,0.6822
640.0,0.6759
641.0,0.6757
642.0,0.6729
643.0,0.682
644.0,0.68
645.0,0.681
646.0,0.6643
647.0,0.6545
648.0,0.6551
649.0,0.6422
650.0,0.6477
651.0,0.6762
652.0,0.6456
653.0,0.6674
654.0,0.6602
655.0,0.6343
656.0,0.5631
657.0,0.5784
658.0,0.6489
659.0,0.6539
660.0,0.6567
661.0,0.6614
662.0,0.6623
663.0,0.6494
664.0,0.6578
665.0,0.6588
666.0,0.6595
667.0,0.6592
668.0,0.6598
669.0,0.6701
670.0,0.6673
671.0,0.6673
672.0,0.6617
673.0,0.6718
674.0,0.6694
675.0,0.6634
676.0,0.668
677.0,0.6615
678.0,0.6635
679.0,0.6528
680.0,0.6581
681.0,0.6538
682.0,0.653
683.0,0.6518
684.0,0.6485
685.0,0.6542
686.0,0.6502
687.0,0.4027
688.0,0.4854
689.0,0.4876
690.0,0.516
691.0,0.5484
692.0,0.5727
693.0,0.5676
694.0,0.5631
695.0,0.59
696.0,0.5909
697.0,0.6315
698.0,0.6215
699.0,0.6038
700.0,0.5964
701.0,0.5893
702.0,0.5945
703.0,0.5958
704.0,0.6166
705.0,0.6175
706.0,0.6176
707.0,0.6183
708.0,0.6196
709.0,0.6216
710.0,0.621
711.0,0.6206
712.0,0.6192
713.0,0.6125
714.0,0.6149
715.0,0.5944
716.0,0.5944
717.0,0.505
718.0,0.4624
719.0,0.4226
720.0,0.4418
721.0,0.494
722.0,0.572
723.0,0.529
724.0,0.4725
725.0,0.4635
726.0,0.4858
727.0,0.4953
728.0,0.4619
729.0,0.4829
730.0,0.5107
731.0,0.4876
732.0,0.5255
733.0,0.5601
734.0,0.5745
735.0,0.562
736.0,0.5612
737.0,0.5634
738.0,0.5748
739.0,0.5634
740.0,0.5789
741.0,0.5737
742.0,0.5747
743.0,0.5895
744.0,0.5881
745.0,0.5885
746.0,0.5911
747.0,0.5925
748.0,0.5913
749.0,0.5846
750.0,0.5842
751.0,0.5783
752.0,0.5809
753.0,0.5838
754.0,0.5852
755.0,0.5818
756.0,0.5816
757.0,0.5824
758.0,0.5751
759.0,0.5618
760.0,0.06859
761.0,0.03217
762.0,0.2566
763.0,0.113
764.0,0.1828
765.0,0.2565
766.0,0.3289
767.0,0.43
768.0,0.5087
769.0,0.5222
770.0,0.5432
771.0,0.5491
772.0,0.5507
773.0,0.5546
774.0,0.5521
775.0,0.5479
776.0,0.5546
777.0,0.5473
778.0,0.544
779.0,0.5445
780.0,0.5414
781.0,0.542
782.0,0.5454
783.0,0.536
784.0,0.5386
785.0,0.5345
786.0,0.5403
787.0,0.5296
788.0,0.5224
789.0,0.522
790.0,0.5063
791.0,0.5125
792.0,0.509
793.0,0.5005
794.0,0.511
795.0,0.5191
796.0,0.5007
797.0,0.5011
798.0,0.5182
799.0,0.5144
800.0,0.5049
801.0,0.5028
802.0,0.5013
803.0,0.4972
804.0,0.4982
805.0,0.4973
806.0,0.5125
807.0,0.5061
808.0,0.5066
809.0,0.4962
810.0,0.4915
811.0,0.4907
812.0,0.475
813.0,0.4642
814.0,0.403
815.0,0.4008
816.0,0.3724
817.0,0.3797
818.0,0.3643
819.0,0.4119
820.0,0.3862
821.0,0.458
822.0,0.4438
823.0,0.2916
824.0,0.4285
825.0,0.4499
826.0,0.4308
827.0,0.4568
828.0,0.3811
829.0,0.4286
830.0,0.4224
831.0,0.424
832.0,0.4099
833.0,0.4391
834.0,0.4215
835.0,0.4676
836.0,0.4446
837.0,0.4691
838.0,0.453
839.0,0.4623
840.0,0.4728
841.0,0.4655
842.0,0.4675
843.0,0.4682
844.0,0.4611
845.0,0.4775
846.0,0.4755
847.0,0.467
848.0,0.4636
849.0,0.4505
850.0,0.4316
851.0,0.4565
852.0,0.4535
853.0,0.4369
854.0,0.3769
855.0,0.4146
856.0,0.4529
857.0,0.4633
858.0,0.4597
859.0,0.4603
860.0,0.4613
861.0,0.4587
862.0,0.466
863.0,0.477
864.0,0.4532
865.0,0.4493
866.0,0.404
867.0,0.4216
868.0,0.4588
869.0,0.4493
870.0,0.4621
871.0,0.4558
872.0,0.4542
873.0,0.4533
874.0,0.4479
875.0,0.4388
876.0,0.4434
877.0,0.4479
878.0,0.4527
879.0,0.4457
880.0,0.4362
881.0,0.4294
882.0,0.4386
883.0,0.4402
884.0,0.4381
885.0,0.4414
886.0,0.4198
887.0,0.425
888.0,0.4308
889.0,0.4365
890.0,0.4319
891.0,0.4316
892.0,0.418
893.0,0.4035
894.0,0.3867
895.0,0.362
896.0,0.3399
897.0,0.2878
898.0,0.3163
899.0,0.2357
900.0,0.3265
901.0,0.247
902.0,0.2966
903.0,0.2972
904.0,0.3838
905.0,0.3692
906.0,0.3444
907.0,0.2733
908.0,0.2798
909.0,0.3059
910.0,0.2652
911.0,0.2863
912.0,0.3001
913.0,0.2689
914.0,0.2676
915.0,0.2901
916.0,0.2444
917.0,0.3158
918.0,0.2503
919.0,0.3232
920.0,0.3298
921.0,0.3432
922.0,0.3029
923.0,0.3319
924.0,0.3098
925.0,0.3032
926.0,0.3061
927.0,0.3466
928.0,0.243
929.0,0.2188
930.0,0.1671
931.0,0.1589
932.0,0.1094
933.0,0.0865
934.0,0.0424
935.0,0.0905
936.0,0.05326
937.0,0.05369
938.0,0.06726
939.0,0.1538
940.0,0.1887
941.0,0.1376
942.0,0.1622
943.0,0.1029
944.0,0.112
945.0,0.1429
946.0,0.06775
947.0,0.1422
948.0,0.1039
949.0,0.1952
950.0,0.04702
951.0,0.1931
952.0,0.09731
953.0,0.1299
954.0,0.1641
955.0,0.1319
956.0,0.1316
957.0,0.09694
958.0,0.1926
959.0,0.1474
960.0,0.1653
961.0,0.1899
962.0,0.1792
963.0,0.2105
964.0,0.1916
965.0,0.2099
966.0,0.2091
967.0,0.2078
968.0,0.2927
969.0,0.3041
970.0,0.2777
971.0,0.3241
972.0,0.3087
973.0,0.2625
974.0,0.2484
975.0,0.2602
976.0,0.2437
977.0,0.2842
978.0,0.2671
979.0,0.2816
980.0,0.2637
981.0,0.3224
982.0,0.306
983.0,0.2924
984.0,0.3349
985.0,0.3048
986.0,0.3424
987.0,0.3338
988.0,0.3333
989.0,0.3424
990.0,0.3312
991.0,0.3432
992.0,0.3454
993.0,0.3358
994.0,0.3455
995.0,0.3454
996.0,0.3435
997.0,0.3442
998.0,0.3424
999.0,0.3413
1000.0,0.3384
1001.0,0.3432
1002.0,0.3319
1003.0,0.337
1004.0,0.3282
1005.0,0.3169
1006.0,0.3289
1007.0,0.3361
1008.0,0.3339
1009.0,0.3318
1010.0,0.3302
1011.0,0.3344
1012.0,0.3312
1013.0,0.3337
1014.0,0.3314
1015.0,0.3291
1016.0,0.3276
1017.0,0.3284
1018.0,0.3274
1019.0,0.3197
1020.0,0.3255
1021.0,0.3252
1022.0,0.3224
1023.0,0.3258
1024.0,0.3208
1025.0,0.3258
1026.0,0.3242
1027.0,0.3235
1028.0,0.3228
1029.0,0.3189
1030.0,0.3213
1031.0,0.32
1032.0,0.3191
1033.0,0.3143
1034.0,0.3143
1035.0,0.3153
1036.0,0.3169
1037.0,0.3117
1038.0,0.3131
1039.0,0.3129
1040.0,0.3116
1041.0,0.3128
1042.0,0.3106
1043.0,0.3096
1044.0,0.3106
1045.0,0.3063
1046.0,0.3029
1047.0,0.3056
1048.0,0.3072
1049.0,0.306
1050.0,0.3046
1051.0,0.3041
1052.0,0.3028
1053.0,0.3003
1054.0,0.3008
1055.0,0.3009
1056.0,0.2997
1057.0,0.2987
1058.0,0.2913
1059.0,0.2915
1060.0,0.291
1061.0,0.2905
1062.0,0.2919
1063.0,0.289
1064.0,0.2924
1065.0,0.2901
1066.0,0.2845
1067.0,0.2881
1068.0,0.2817
1069.0,0.2731
1070.0,0.2822
1071.0,0.2872
1072.0,0.2834
1073.0,0.2794
1074.0,0.2874
1075.0,0.271
1076.0,0.287
1077.0,0.2808
1078.0,0.275
1079.0,0.2828
1080.0,0.2765
1081.0,0.2667
1082.0,0.2726
1083.0,0.2739
1084.0,0.2656
1085.0,0.2773
1086.0,0.2503
1087.0,0.2603
1088.0,0.2733
1089.0,0.2631
1090.0,0.2562
1091.0,0.2719
1092.0,0.2716
1093.0,0.2252
1094.0,0.2478
1095.0,0.2351
1096.0,0.2236
1097.0,0.2653
1098.0,0.2195
1099.0,0.2298
1100.0,0.2115
1101.0,0.2148
1102.0,0.2038
1103.0,0.2008
1104.0,0.2012
1105.0,0.2241
1106.0,0.163
1107.0,0.2112
1108.0,0.174
1109.0,0.1753
1110.0,0.2085
1111.0,0.1348
1112.0,0.1743
1113.0,0.1043
1114.0,0.1171
1115.0,0.09674
1116.0,0.07341
1117.0,0.02314
1118.0,0.08106
1119.0,0.03696
1120.0,0.0462
1121.0,0.06321
1122.0,0.02388
1123.0,0.0419
1124.0,0.03532
1125.0,0.04688
1126.0,0.01369
1127.0,0.05313
1128.0,0.02885
1129.0,0.03097
1130.0,0.01947
1131.0,0.1082
1132.0,0.08346
1133.0,0.04886
1134.0,0.01047
1135.0,0.004051
1136.0,0.03936
1137.0,0.1048
1138.0,0.07312
1139.0,0.1173
1140.0,0.09483
1141.0,0.06957
1142.0,0.08162
1143.0,0.1194
1144.0,0.03789
1145.0,0.04718
1146.0,0.05084
1147.0,0.01522
1148.0,0.103
1149.0,0.07989
1150.0,0.04129
1151.0,0.07252
1152.0,0.09213
1153.0,0.09199
1154.0,0.04553
1155.0,0.1222
1156.0,0.1084
1157.0,0.1245
1158.0,0.1231
1159.0,0.1347
1160.0,0.1132
1161.0,0.1439
1162.0,0.1442
1163.0,0.2024
1164.0,0.1709
1165.0,0.1585
1166.0,0.1595
1167.0,0.175
1168.0,0.1763
1169.0,0.1814
1170.0,0.1994
1171.0,0.1942
1172.0,0.1991
1173.0,0.199
1174.0,0.1367
1175.0,0.1955
1176.0,0.2178
1177.0,0.2071
1178.0,0.1516
1179.0,0.2196
1180.0,0.1929
1181.0,0.1993
1182.0,0.1332
1183.0,0.1969
1184.0,0.1831
1185.0,0.1753
1186.0,0.2122
1187.0,0.2008
1188.0,0.1348
1189.0,0.1868
1190.0,0.2076
1191.0,0.1946
1192.0,0.2107
1193.0,0.2011
1194.0,0.2078
1195.0,0.1948
1196.0,0.1866
1197.0,0.2088
1198.0,0.19
1199.0,0.1579
1200.0,0.1984
1201.0,0.1901
1202.0,0.19
1203.0,0.1879
1204.0,0.1626
1205.0,0.1954
1206.0,0.2177
1207.0,0.189
1208.0,0.1871
1209.0,0.1912
1210.0,0.2
1211.0,0.1892
1212.0,0.1851
1213.0,0.2097
1214.0,0.1903
1215.0,0.1864
1216.0,0.2092
1217.0,0.203
1218.0,0.2074
1219.0,0.2045
1220.0,0.2077
1221.0,0.2102
1222.0,0.2044
1223.0,0.2022
1224.0,0.2003
1225.0,0.2088
1226.0,0.2106
1227.0,0.1925
1228.0,0.2121
1229.0,0.2107
1230.0,0.2067
1231.0,0.2138
1232.0,0.2125
1233.0,0.2036
1234.0,0.2139
1235.0,0.2123
1236.0,0.2141
1237.0,0.2104
1238.0,0.2133
1239.0,0.2106
1240.0,0.2115
1241.0,0.2101
1242.0,0.21
1243.0,0.2083
1244.0,0.2097
1245.0,0.2106
1246.0,0.2094
1247.0,0.2085
1248.0,0.2082
1249.0,0.209
1250.0,0.2076
1251.0,0.2047
1252.0,0.205
1253.0,0.2029
1254.0,0.2004
1255.0,0.2047
1256.0,0.198
1257.0,0.1967
1258.0,0.2011
1259.0,0.1923
1260.0,0.1935
1261.0,0.1808
1262.0,0.1744
1263.0,0.1746
1264.0,0.1589
1265.0,0.1736
1266.0,0.1657
1267.0,0.1695
1268.0,0.1593
1269.0,0.08953
1270.0,0.1685
1271.0,0.1804
1272.0,0.1812
1273.0,0.1791
1274.0,0.1799
1275.0,0.1829
1276.0,0.185
1277.0,0.1867
1278.0,0.1911
1279.0,0.1893
1280.0,0.187
1281.0,0.1787
1282.0,0.1728
1283.0,0.186
1284.0,0.1903
1285.0,0.1917
1286.0,0.1946
1287.0,0.191
1288.0,0.1911
1289.0,0.1839
1290.0,0.1895
1291.0,0.1924
1292.0,0.1786
1293.0,0.1881
1294.0,0.1867
1295.0,0.1851
1296.0,0.1754
1297.0,0.1649
1298.0,0.1796
1299.0,0.1885
1300.0,0.156
1301.0,0.1614
1302.0,0.1791
1303.0,0.1543
1304.0,0.1282
1305.0,0.1752
1306.0,0.1749
1307.0,0.1322
1308.0,0.1551
1309.0,0.1732
1310.0,0.1295
1311.0,0.148
1312.0,0.1434
1313.0,0.14
1314.0,0.1241
1315.0,0.1217
1316.0,0.145
1317.0,0.1369
1318.0,0.1502
1319.0,0.1133
1320.0,0.1107
1321.0,0.1303
1322.0,0.1309
1323.0,0.09511
1324.0,0.1113
1325.0,0.1426
1326.0,0.1202
1327.0,0.1141
1328.0,0.09725
1329.0,0.07004
1330.0,0.0927
1331.0,0.05251
1332.0,0.05535
1333.0,0.07776
1334.0,0.06779
1335.0,0.09461
1336.0,0.07294
1337.0,0.06369
1338.0,0.06884
1339.0,0.06904
1340.0,0.06813
1341.0,0.06423
1342.0,0.0677
1343.0,0.04162
1344.0,0.02526
1345.0,0.03646
1346.0,0.01567
1347.0,0.01551
1348.0,0.0007284
1349.0,0.002855
1350.0,0.003156
1351.0,0.0005708
1352.0,0.0001089
1353.0,4.021e-06
1354.0,1.744e-05
1355.0,6.909e-08
1356.0,1.93e-06
1357.0,2.953e-06
1358.0,8.425e-08
1359.0,6.135e-09
1360.0,3.171e-08
1361.0,1.166e-11
1362.0,2.103e-14
1363.0,3.494e-08
1364.0,1.46e-08
1365.0,4.177e-15
1366.0,1.762e-07
1367.0,8.252e-08
1368.0,1.336e-17
1369.0,5.358e-09
1370.0,2.097e-09
1371.0,9.212e-11
1372.0,4.588e-08
1373.0,1.323e-06
1374.0,7.901e-06
1375.0,1.387e-05
1376.0,1.594e-05
1377.0,6.939e-06
1378.0,7.396e-05
1379.0,2.916e-06
1380.0,3.549e-06
1381.0,8.189e-08
1382.0,3.863e-08
1383.0,4.877e-10
1384.0,5.484e-09
1385.0,4.81e-08
1386.0,2.907e-08
1387.0,6.852e-06
1388.0,1.426e-07
1389.0,3.136e-05
1390.0,2.657e-05
1391.0,1.704e-05
1392.0,1.048e-06
1393.0,6.326e-06
1394.0,2.122e-06
1395.0,1.216e-08
1396.0,1.95e-11
1397.0,2.285e-06
1398.0,8.023e-05
1399.0,5.162e-05
1400.0,6.243e-12
1401.0,3.902e-11
1402.0,0.0002093
1403.0,0.0002442
1404.0,7.192e-05
1405.0,4.849e-09
1406.0,0.0001647
1407.0,1.648e-05
1408.0,0.0001381
1409.0,3.765e-05
1410.0,3.544e-05
1411.0,0.0002181
1412.0,0.0003252
1413.0,0.004415
1414.0,2.88e-05
1415.0,1.26e-05
1416.0,0.008803
1417.0,0.002208
1418.0,0.002387
1419.0,0.0003542
1420.0,0.001448
1421.0,0.001607
1422.0,0.01156
1423.0,0.002135
1424.0,0.004145
1425.0,0.005827
1426.0,0.007224
1427.0,0.01462
1428.0,0.0006628
1429.0,0.01022
1430.0,0.0193
1431.0,0.02168
1432.0,0.0005146
1433.0,0.01316
1434.0,0.006383
1435.0,0.005361
1436.0,0.01188
