interpolation:linear
wavelength,value
280.0,1.194e-20
280.5,3.561e-19
281.0,1.849e-18
281.5,4.396e-19
282.0,1.524e-18
282.5,4.109e-18
283.0,1.338e-17
283.5,2.192e-17
284.0,3.48e-16
284.5,9.905e-16
285.0,1.878e-15
285.5,1.015e-14
286.0,4.161e-14
286.5,1.89e-13
287.0,5.418e-13
287.5,2.065e-12
288.0,5.537e-12
288.5,2.031e-11
289.0,6.282e-11
289.5,2.157e-10
290.0,6.547e-10
290.5,1.43e-09
291.0,3.309e-09
291.5,1.038e-08
292.0,2.619e-08
292.5,4.153e-08
293.0,1.045e-07
293.5,3.192e-07
294.0,5.921e-07
294.5,7.932e-07
295.0,1.594e-06
295.5,4.307e-06
296.0,8.488e-06
296.5,1.213e-05
297.0,1.671e-05
297.5,4.602e-05
298.0,7.422e-05
298.5,7.604e-05
299.0,0.0001707
299.5,0.0002924
300.0,0.0003278
300.5,0.0004848
301.0,0.0009094
301.5,0.001506
302.0,0.001319
302.5,0.002541
303.0,0.004475
303.5,0.005561
304.0,0.005174
304.5,0.007517
305.0,0.01097
305.5,0.01227
306.0,0.01176
306.5,0.01442
307.0,0.02066
307.5,0.02657
308.0,0.02791
308.5,0.03243
309.0,0.03159
309.5,0.03532
310.0,0.03511
310.5,0.05656
311.0,0.07036
311.5,0.06766
312.0,0.06633
312.5,0.07965
313.0,0.0858
313.5,0.08386
314.0,0.1032
314.5,0.08954
315.0,0.1172
315.5,0.0991
316.0,0.08504
316.5,0.1203
317.0,0.1494
317.5,0.1561
318.0,0.1205
318.5,0.1467
319.0,0.1723
319.5,0.1428
320.0,0.1729
320.5,0.212
321.0,0.1853
321.5,0.1773
322.0,0.1928
322.5,0.1676
323.0,0.1647
323.5,0.1999
324.0,0.2329
324.5,0.2377
325.0,0.2068
325.5,0.2631
326.0,0.3207
326.5,0.3189
327.0,0.3187
327.5,0.3089
328.0,0.2777
328.5,0.2885
329.0,0.3422
329.5,0.3874
330.0,0.3917
330.5,0.3157
331.0,0.3225
331.5,0.326
332.0,0.3495
332.5,0.3445
333.0,0.3442
333.5,0.3134
334.0,0.3214
334.5,0.3684
335.0,0.3449
335.5,0.4028
336.0,0.2787
336.5,0.327
337.0,0.2691
337.5,0.335
338.0,0.3253
338.5,0.3755
339.0,0.3716
339.5,0.3575
340.0,0.4202
340.5,0.3786
341.0,0.3693
341.5,0.339
342.0,0.4051
342.5,0.379
343.0,0.4169
343.5,0.3927
344.0,0.2902
344.5,0.2932
345.0,0.3879
345.5,0.396
346.0,0.3365
346.5,0.3811
347.0,0.4091
347.5,0.3308
348.0,0.3771
348.5,0.3769
349.0,0.3497
349.5,0.3463
350.0,0.4283
350.5,0.4518
351.0,0.4037
351.5,0.3924
352.0,0.4215
352.5,0.3289
353.0,0.4143
353.5,0.443
354.0,0.4599
354.5,0.4664
355.0,0.4649
355.5,0.42
356.0,0.4395
356.5,0.3753
357.0,0.3101
357.5,0.3797
358.0,0.3009
358.5,0.2572
359.0,0.3597
359.5,0.4585
360.0,0.4861
360.5,0.3885
361.0,0.3542
361.5,0.4079
362.0,0.3527
362.5,0.4882
363.0,0.4385
363.5,0.404
364.0,0.4941
364.5,0.4224
365.0,0.4302
365.5,0.54
366.0,0.5722
366.5,0.5377
367.0,0.5237
367.5,0.5435
368.0,0.4757
368.5,0.48
369.0,0.5184
369.5,0.5526
370.0,0.5892
370.5,0.4573
371.0,0.4887
371.5,0.6115
372.0,0.4059
372.5,0.4867
373.0,0.4952
373.5,0.3222
374.0,0.4682
374.5,0.3878
375.0,0.377
375.5,0.5629
376.0,0.4667
376.5,0.4837
377.0,0.5122
377.5,0.5993
378.0,0.6497
378.5,0.6141
379.0,0.5069
379.5,0.4631
380.0,0.4815
380.5,0.5832
381.0,0.5845
381.5,0.4634
382.0,0.4116
382.5,0.3509
383.0,0.3249
383.5,0.313
384.0,0.3453
384.5,0.5079
385.0,0.5037
385.5,0.4692
386.0,0.4019
386.5,0.528
387.0,0.4388
387.5,0.4929
388.0,0.4551
388.5,0.4499
389.0,0.4857
389.5,0.5884
390.0,0.5906
390.5,0.5435
391.0,0.6399
391.5,0.6527
392.0,0.5498
392.5,0.4923
393.0,0.274
393.5,0.1992
394.0,0.4053
394.5,0.5154
395.0,0.6289
395.5,0.639
396.0,0.554
396.5,0.3239
397.0,0.2431
397.5,0.4945
398.0,0.6925
398.5,0.7159
399.0,0.7752
399.5,0.7728
400.0,0.8025
401.0,0.8147
402.0,0.8596
403.0,0.8167
404.0,0.8043
405.0,0.8043
406.0,0.7913
407.0,0.7787
408.0,0.8092
409.0,0.8662
410.0,0.757
411.0,0.82
412.0,0.8808
413.0,0.8591
414.0,0.8697
415.0,0.8721
416.0,0.8874
417.0,0.8657
418.0,0.8498
419.0,0.861
420.0,0.8573
421.0,0.897
422.0,0.8526
423.0,0.833
424.0,0.8811
425.0,0.8795
426.0,0.8568
427.0,0.8408
428.0,0.8191
429.0,0.7759
430.0,0.6791
431.0,0.6732
432.0,0.8692
433.0,0.874
434.0,0.8116
435.0,0.8477
436.0,0.9552
437.0,0.9423
438.0,0.8581
439.0,0.8877
440.0,0.9159
441.0,0.9491
442.0,1.018
443.0,0.9916
444.0,1.013
445.0,0.9913
446.0,0.9459
447.0,1.023
448.0,1.039
449.0,1.043
450.0,1.072
451.0,1.112
452.0,1.071
453.0,1.007
454.0,1.052
455.0,1.058
456.0,1.083
457.0,1.101
458.0,1.064
459.0,1.058
460.0,1.061
461.0,1.086
462.0,1.094
463.0,1.087
464.0,1.068
465.0,1.055
466.0,1.065
467.0,1.046
468.0,1.058
469.0,1.063
470.0,1.03
471.0,1.028
472.0,1.083
473.0,1.069
474.0,1.071
475.0,1.08
476.0,1.048
477.0,1.051
478.0,1.081
479.0,1.074
480.0,1.076
481.0,1.096
482.0,1.101
483.0,1.088
484.0,1.065
485.0,1.015
486.0,0.8873
487.0,0.9298
488.0,1.02
489.0,1.023
490.0,1.077
491.0,1.058
492.0,0.999
493.0,1.032
494.0,1.042
495.0,1.051
496.0,1.057
497.0,1.074
498.0,1.024
499.0,1.037
500.0,1.007
501.0,0.9882
502.0,0.9746
503.0,1.014
504.0,0.9893
505.0,1.024
506.0,1.057
507.0,1.006
508.0,0.9746
509.0,1.002
510.0,0.9963
511.0,1.023
512.0,1.034
513.0,0.9786
514.0,0.9718
515.0,0.9622
516.0,0.9598
517.0,0.8528
518.0,0.8966
519.0,0.9405
520.0,0.9747
521.0,0.984
522.0,0.9849
523.0,0.9672
524.0,1.002
525.0,1.014
526.0,0.9686
527.0,0.9128
528.0,0.9655
529.0,1.018
530.0,1.003
531.0,1.018
532.0,0.9832
533.0,0.9544
534.0,0.9826
535.0,1.004
536.0,1.013
537.0,0.9731
538.0,0.9902
539.0,0.9819
540.0,0.9415
541.0,0.9479
542.0,0.9777
543.0,0.9672
544.0,0.9841
545.0,0.9811
546.0,0.9855
547.0,0.985
548.0,0.9731
549.0,0.976
550.0,0.9876
551.0,0.9756
552.0,0.9824
553.0,0.9648
554.0,0.9879
555.0,0.9899
556.0,0.9771
557.0,0.9468
558.0,0.9397
559.0,0.9223
560.0,0.9339
561.0,0.946
562.0,0.9393
563.0,0.9651
564.0,0.9389
565.0,0.9309
566.0,0.9173
567.0,0.9348
568.0,0.9267
569.0,0.9052
570.0,0.9049
571.0,0.8993
572.0,0.9213
573.0,0.9312
574.0,0.9283
575.0,0.9111
576.0,0.9027
577.0,0.9125
578.0,0.8987
579.0,0.902
580.0,0.9188
581.0,0.9232
582.0,0.9404
583.0,0.9425
584.0,0.9506
585.0,0.9273
586.0,0.9082
587.0,0.9283
588.0,0.9064
589.0,0.8043
590.0,0.841
591.0,0.8892
592.0,0.8784
593.0,0.8908
594.0,0.8849
595.0,0.8635
596.0,0.8965
597.0,0.887
598.0,0.8845
599.0,0.8851
600.0,0.8861
601.0,0.8787
602.0,0.8727
603.0,0.887
604.0,0.9017
605.0,0.8969
606.0,0.8931
607.0,0.9019
608.0,0.8918
609.0,0.8933
610.0,0.8868
611.0,0.8913
612.0,0.8887
613.0,0.8774
614.0,0.8653
615.0,0.8841
616.0,0.8549
617.0,0.8531
618.0,0.8859
619.0,0.8769
620.0,0.8825
621.0,0.8834
622.0,0.8731
623.0,0.8599
624.0,0.8451
625.0,0.8432
626.0,0.8557
627.0,0.8655
628.0,0.811
629.0,0.846
630.0,0.8266
631.0,0.8443
632.0,0.834
633.0,0.859
634.0,0.8504
635.0,0.8635
636.0,0.8519
637.0,0.8657
638.0,0.8738
639.0,0.8639
640.0,0.8554
641.0,0.8548
642.0,0.8508
643.0,0.8622
644.0,0.8593
645.0,0.8608
646.0,0.841
647.0,0.8318
648.0,0.8326
649.0,0.8165
650.0,0.8196
651.0,0.8549
652.0,0.8203
653.0,0.8435
654.0,0.834
655.0,0.8035
656.0,0.7118
657.0,0.7309
658.0,0.8188
659.0,0.8245
660.0,0.8279
661.0,0.8337
662.0,0.8356
663.0,0.819
664.0,0.8284
665.0,0.8289
666.0,0.8294
667.0,0.8286
668.0,0.8288
669.0,0.8416
670.0,0.8379
671.0,0.8377
672.0,0.8305
673.0,0.8429
674.0,0.8397
675.0,0.8321
676.0,0.8377
677.0,0.8294
678.0,0.8317
679.0,0.8182
680.0,0.8248
681.0,0.8193
682.0,0.8183
683.0,0.8167
684.0,0.8126
685.0,0.8195
686.0,0.8147
687.0,0.5524
688.0,0.642
689.0,0.6441
690.0,0.6737
691.0,0.707
692.0,0.7311
693.0,0.7253
694.0,0.7192
695.0,0.7476
696.0,0.7486
697.0,0.7927
698.0,0.7804
699.0,0.7629
700.0,0.7537
701.0,0.7464
702.0,0.7511
703.0,0.7525
704.0,0.7759
705.0,0.7771
706.0,0.7761
707.0,0.7766
708.0,0.7783
709.0,0.779
710.0,0.7792
711.0,0.778
712.0,0.7754
713.0,0.7678
714.0,0.7706
715.0,0.7468
716.0,0.7473
717.0,0.6524
718.0,0.5998
719.0,0.5499
720.0,0.5763
721.0,0.6336
722.0,0.7221
723.0,0.6737
724.0,0.6086
725.0,0.5994
726.0,0.6273
727.0,0.6352
728.0,0.5981
729.0,0.619
730.0,0.6551
731.0,0.6272
732.0,0.6693
733.0,0.7069
734.0,0.7233
735.0,0.7086
736.0,0.7076
737.0,0.7105
738.0,0.7204
739.0,0.7062
740.0,0.7243
741.0,0.7169
742.0,0.7174
743.0,0.7356
744.0,0.7334
745.0,0.7335
746.0,0.7368
747.0,0.7384
748.0,0.7369
749.0,0.7285
750.0,0.728
751.0,0.7206
752.0,0.7237
753.0,0.7274
754.0,0.729
755.0,0.7249
756.0,0.7245
757.0,0.7256
758.0,0.7166
759.0,0.7026
760.0,0.1268
761.0,0.06839
762.0,0.37
763.0,0.1904
764.0,0.2814
765.0,0.37
766.0,0.4495
767.0,0.5625
768.0,0.6454
769.0,0.6581
770.0,0.6795
771.0,0.6846
772.0,0.6859
773.0,0.6906
774.0,0.6873
775.0,0.682
776.0,0.6903
777.0,0.6812
778.0,0.6771
779.0,0.6776
780.0,0.6738
781.0,0.6745
782.0,0.6787
783.0,0.6669
784.0,0.6701
785.0,0.6652
786.0,0.6725
787.0,0.6612
788.0,0.6532
789.0,0.653
790.0,0.6362
791.0,0.6411
792.0,0.6363
793.0,0.6261
794.0,0.6362
795.0,0.6471
796.0,0.628
797.0,0.6288
798.0,0.6464
799.0,0.6424
800.0,0.6314
801.0,0.6297
802.0,0.6278
803.0,0.6232
804.0,0.6239
805.0,0.6217
806.0,0.6388
807.0,0.6312
808.0,0.6317
809.0,0.6202
810.0,0.6153
811.0,0.6165
812.0,0.5994
813.0,0.5872
814.0,0.5184
815.0,0.5152
816.0,0.4798
817.0,0.4883
818.0,0.4705
819.0,0.5244
820.0,0.4945
821.0,0.5758
822.0,0.5597
823.0,0.384
824.0,0.5442
825.0,0.5659
826.0,0.5451
827.0,0.5746
828.0,0.489
829.0,0.5417
830.0,0.5348
831.0,0.5366
832.0,0.5205
833.0,0.5528
834.0,0.5338
835.0,0.5851
836.0,0.5609
837.0,0.5867
838.0,0.5688
839.0,0.5778
840.0,0.5904
841.0,0.5821
842.0,0.5832
843.0,0.5826
844.0,0.5746
845.0,0.5939
846.0,0.5912
847.0,0.5802
848.0,0.5767
849.0,0.5603
850.0,0.5368
851.0,0.5684
852.0,0.5644
853.0,0.5432
854.0,0.469
855.0,0.5153
856.0,0.5631
857.0,0.5756
858.0,0.5714
859.0,0.5719
860.0,0.5728
861.0,0.5697
862.0,0.5787
863.0,0.5923
864.0,0.5627
865.0,0.5578
866.0,0.5015
867.0,0.5234
868.0,0.5695
869.0,0.5577
870.0,0.5736
871.0,0.5658
872.0,0.5638
873.0,0.5627
874.0,0.556
875.0,0.5447
876.0,0.5504
877.0,0.556
878.0,0.562
879.0,0.5534
880.0,0.5415
881.0,0.5334
882.0,0.5449
883.0,0.5466
884.0,0.5441
885.0,0.5482
886.0,0.5226
887.0,0.5281
888.0,0.5359
889.0,0.5419
890.0,0.5375
891.0,0.5365
892.0,0.5211
893.0,0.505
894.0,0.4875
895.0,0.461
896.0,0.4344
897.0,0.3735
898.0,0.4074
899.0,0.3104
900.0,0.4168
901.0,0.3253
902.0,0.3811
903.0,0.3851
904.0,0.4838
905.0,0.4673
906.0,0.4374
907.0,0.356
908.0,0.3629
909.0,0.3929
910.0,0.3479
911.0,0.3706
912.0,0.3873
913.0,0.3531
914.0,0.35
915.0,0.3794
916.0,0.3213
917.0,0.4073
918.0,0.3294
919.0,0.4146
920.0,0.4186
921.0,0.4353
922.0,0.3895
923.0,0.4205
924.0,0.3992
925.0,0.3905
926.0,0.3947
927.0,0.4417
928.0,0.3246
929.0,0.2964
930.0,0.2329
931.0,0.2207
932.0,0.1589
933.0,0.1291
934.0,0.07069
935.0,0.1322
936.0,0.08244
937.0,0.08354
938.0,0.1028
939.0,0.2138
940.0,0.2573
941.0,0.1941
942.0,0.2248
943.0,0.1477
944.0,0.1557
945.0,0.2001
946.0,0.1017
947.0,0.201
948.0,0.1476
949.0,0.2693
950.0,0.07447
951.0,0.2652
952.0,0.1422
953.0,0.1838
954.0,0.2256
955.0,0.186
956.0,0.1806
957.0,0.1424
958.0,0.2563
959.0,0.2033
960.0,0.2279
961.0,0.2561
962.0,0.2422
963.0,0.2795
964.0,0.2559
965.0,0.2784
966.0,0.2784
967.0,0.2772
968.0,0.3724
969.0,0.3889
970.0,0.3571
971.0,0.409
972.0,0.3912
973.0,0.3403
974.0,0.3229
975.0,0.3353
976.0,0.3182
977.0,0.3625
978.0,0.3442
979.0,0.3607
980.0,0.339
981.0,0.4067
982.0,0.3887
983.0,0.3731
984.0,0.4192
985.0,0.3873
986.0,0.4266
987.0,0.4182
988.0,0.4174
989.0,0.4254
990.0,0.4149
991.0,0.4266
992.0,0.4291
993.0,0.4195
994.0,0.429
995.0,0.4285
996.0,0.4265
997.0,0.4272
998.0,0.4252
999.0,0.4236
1000.0,0.4206
1001.0,0.4259
1002.0,0.414
1003.0,0.4184
1004.0,0.4081
1005.0,0.3932
1006.0,0.4085
1007.0,0.4172
1008.0,0.4149
1009.0,0.4127
1010.0,0.4109
1011.0,0.4151
1012.0,0.4115
1013.0,0.4141
1014.0,0.4112
1015.0,0.4085
1016.0,0.4066
1017.0,0.4076
1018.0,0.4061
1019.0,0.3974
1020.0,0.404
1021.0,0.4034
1022.0,0.4003
1023.0,0.4045
1024.0,0.3992
1025.0,0.4043
1026.0,0.4025
1027.0,0.4016
1028.0,0.4007
1029.0,0.396
1030.0,0.3987
1031.0,0.3971
1032.0,0.396
1033.0,0.39
1034.0,0.39
1035.0,0.3912
1036.0,0.3933
1037.0,0.3869
1038.0,0.3886
1039.0,0.3884
1040.0,0.3868
1041.0,0.3883
1042.0,0.3856
1043.0,0.3844
1044.0,0.3857
1045.0,0.3805
1046.0,0.3763
1047.0,0.3797
1048.0,0.3818
1049.0,0.3804
1050.0,0.3786
1051.0,0.3781
1052.0,0.3765
1053.0,0.3735
1054.0,0.3743
1055.0,0.3745
1056.0,0.3732
1057.0,0.3721
1058.0,0.3629
1059.0,0.3633
1060.0,0.3627
1061.0,0.3623
1062.0,0.3642
1063.0,0.3606
1064.0,0.3649
1065.0,0.3622
1066.0,0.3551
1067.0,0.3596
1068.0,0.3518
1069.0,0.3409
1070.0,0.3525
1071.0,0.358
1072.0,0.3538
1073.0,0.3487
1074.0,0.3578
1075.0,0.3397
1076.0,0.3575
1077.0,0.351
1078.0,0.3444
1079.0,0.3518
1080.0,0.3456
1081.0,0.3345
1082.0,0.34
1083.0,0.341
1084.0,0.3336
1085.0,0.3464
1086.0,0.3159
1087.0,0.3262
1088.0,0.3407
1089.0,0.3301
1090.0,0.3227
1091.0,0.3395
1092.0,0.3387
1093.0,0.2868
1094.0,0.3098
1095.0,0.2988
1096.0,0.286
1097.0,0.3308
1098.0,0.2815
1099.0,0.2937
1100.0,0.2729
1101.0,0.2764
1102.0,0.2639
1103.0,0.2612
1104.0,0.2616
1105.0,0.287
1106.0,0.2189
1107.0,0.2724
1108.0,0.2306
1109.0,0.2311
1110.0,0.27
1111.0,0.1826
1112.0,0.2293
1113.0,0.1454
1114.0,0.1626
1115.0,0.1348
1116.0,0.1072
1117.0,0.03896
1118.0,0.1168
1119.0,0.0576
1120.0,0.07248
1121.0,0.09643
1122.0,0.04025
1123.0,0.06552
1124.0,0.05529
1125.0,0.07223
1126.0,0.02481
1127.0,0.0815
1128.0,0.0484
1129.0,0.05141
1130.0,0.03368
1131.0,0.1555
1132.0,0.1218
1133.0,0.0767
1134.0,0.01932
1135.0,0.007255
1136.0,0.06381
1137.0,0.1525
1138.0,0.1074
1139.0,0.161
1140.0,0.1342
1141.0,0.102
1142.0,0.1176
1143.0,0.1673
1144.0,0.058
1145.0,0.07399
1146.0,0.07979
1147.0,0.02771
1148.0,0.1448
1149.0,0.1153
1150.0,0.06242
1151.0,0.1065
1152.0,0.1314
1153.0,0.1283
1154.0,0.07165
1155.0,0.1679
1156.0,0.1511
1157.0,0.1697
1158.0,0.1679
1159.0,0.1813
1160.0,0.1547
1161.0,0.1909
1162.0,0.1919
1163.0,0.2593
1164.0,0.2224
1165.0,0.2097
1166.0,0.2083
1167.0,0.2269
1168.0,0.2294
1169.0,0.2348
1170.0,0.2552
1171.0,0.2488
1172.0,0.2533
1173.0,0.2546
1174.0,0.1821
1175.0,0.2487
1176.0,0.2732
1177.0,0.2624
1178.0,0.1974
1179.0,0.2754
1180.0,0.2461
1181.0,0.2539
1182.0,0.1756
1183.0,0.25
1184.0,0.2344
1185.0,0.2263
1186.0,0.2679
1187.0,0.2553
1188.0,0.1786
1189.0,0.2379
1190.0,0.2618
1191.0,0.2488
1192.0,0.2654
1193.0,0.2544
1194.0,0.2622
1195.0,0.2482
1196.0,0.2391
1197.0,0.2622
1198.0,0.24
1199.0,0.2047
1200.0,0.2512
1201.0,0.2425
1202.0,0.241
1203.0,0.239
1204.0,0.2093
1205.0,0.2464
1206.0,0.2719
1207.0,0.2404
1208.0,0.2365
1209.0,0.2413
1210.0,0.2512
1211.0,0.2395
1212.0,0.2369
1213.0,0.2631
1214.0,0.2424
1215.0,0.2379
1216.0,0.2622
1217.0,0.2554
1218.0,0.2601
1219.0,0.257
1220.0,0.2604
1221.0,0.2629
1222.0,0.2561
1223.0,0.2538
1224.0,0.2523
1225.0,0.2612
1226.0,0.2629
1227.0,0.2428
1228.0,0.2641
1229.0,0.2629
1230.0,0.2585
1231.0,0.2656
1232.0,0.264
1233.0,0.2553
1234.0,0.2653
1235.0,0.2637
1236.0,0.2656
1237.0,0.262
1238.0,0.2647
1239.0,0.2613
1240.0,0.2623
1241.0,0.2611
1242.0,0.2605
1243.0,0.2583
1244.0,0.2602
1245.0,0.2613
1246.0,0.2598
1247.0,0.2588
1248.0,0.2586
1249.0,0.2594
1250.0,0.2579
1251.0,0.2546
1252.0,0.2546
1253.0,0.2526
1254.0,0.2502
1255.0,0.2544
1256.0,0.2474
1257.0,0.2461
1258.0,0.2505
1259.0,0.2417
1260.0,0.243
1261.0,0.2297
1262.0,0.223
1263.0,0.2234
1264.0,0.2066
1265.0,0.222
1266.0,0.2138
1267.0,0.2174
1268.0,0.2065
1269.0,0.1298
1270.0,0.2167
1271.0,0.2289
1272.0,0.2296
1273.0,0.2272
1274.0,0.2279
1275.0,0.2311
1276.0,0.2333
1277.0,0.2347
1278.0,0.2391
1279.0,0.237
1280.0,0.234
1281.0,0.2232
1282.0,0.2149
1283.0,0.2315
1284.0,0.2371
1285.0,0.2386
1286.0,0.2418
1287.0,0.2381
1288.0,0.2381
1289.0,0.2307
1290.0,0.2359
1291.0,0.2392
1292.0,0.2251
1293.0,0.2346
1294.0,0.233
1295.0,0.232
1296.0,0.2217
1297.0,0.2099
1298.0,0.2256
1299.0,0.2349
1300.0,0.1995
1301.0,0.2055
1302.0,0.2248
1303.0,0.1968
1304.0,0.1684
1305.0,0.2203
1306.0,0.2203
1307.0,0.1719
1308.0,0.197
1309.0,0.2187
1310.0,0.1686
1311.0,0.189
1312.0,0.184
1313.0,0.1805
1314.0,0.1618
1315.0,0.1598
1316.0,0.1861
1317.0,0.1764
1318.0,0.1915
1319.0,0.1502
1320.0,0.1454
1321.0,0.1692
1322.0,0.171
1323.0,0.1291
1324.0,0.1474
1325.0,0.1835
1326.0,0.1577
1327.0,0.1505
1328.0,0.1299
1329.0,0.09782
1330.0,0.1272
1331.0,0.07702
1332.0,0.07946
1333.0,0.1106
1334.0,0.09353
1335.0,0.1286
1336.0,0.1018
1337.0,0.09006
1338.0,0.09746
1339.0,0.097
1340.0,0.0943
1341.0,0.09219
1342.0,0.09682
1343.0,0.06572
1344.0,0.03935
1345.0,0.05674
1346.0,0.02826
1347.0,0.02874
1348.0,0.001887
1349.0,0.00676
1350.0,0.007006
1351.0,0.001722
1352.0,0.0004718
1353.0,2.448e-05
1354.0,8.348e-05
1355.0,6.973e-07
1356.0,1.197e-05
1357.0,1.824e-05
1358.0,8.248e-07
1359.0,1.069e-07
1360.0,3.812e-07
1361.0,4.512e-10
1362.0,1.267e-12
1363.0,5.21e-07
1364.0,2.16e-07
1365.0,4.595e-13
1366.0,2.262e-06
1367.0,9.22e-07
1368.0,3.792e-15
1369.0,8.088e-08
1370.0,4.038e-08
1371.0,2.326e-09
1372.0,5.074e-07
1373.0,1.008e-05
1374.0,4.632e-05
1375.0,8.43e-05
1376.0,7.508e-05
1377.0,3.449e-05
1378.0,0.0003364
1379.0,1.45e-05
1380.0,2.105e-05
1381.0,5.538e-07
1382.0,4.592e-07
1383.0,6.952e-09
1384.0,9.193e-08
1385.0,4.289e-07
1386.0,4.126e-07
1387.0,4.845e-05
1388.0,9.561e-07
1389.0,0.0001624
1390.0,0.0001398
1391.0,9.349e-05
1392.0,6.101e-06
1393.0,3.221e-05
1394.0,1.697e-05
1395.0,1.264e-07
1396.0,6.455e-10
1397.0,1.289e-05
1398.0,0.0003785
1399.0,0.00024
1400.0,2.832e-10
1401.0,1.156e-09
1402.0,0.0006598
1403.0,0.0008313
1404.0,0.0002536
1405.0,6.216e-08
1406.0,0.0006627
1407.0,5.835e-05
1408.0,0.0005417
1409.0,0.0001828
1410.0,0.0001459
1411.0,0.0007307
1412.0,0.0009844
1413.0,0.01014
1414.0,0.000115
1415.0,5.533e-05
1416.0,0.01677
1417.0,0.005008
1418.0,0.005694
1419.0,0.0008806
1420.0,0.003481
1421.0,0.003765
1422.0,0.02191
1423.0,0.004226
1424.0,0.007943
1425.0,0.01165
1426.0,0.01333
1427.0,0.02476
1428.0,0.001774
1429.0,0.01839
1430.0,0.03168
1431.0,0.0349
1432.0,0.001395
1433.0,0.02206
1434.0,0.01115
1435.0,0.01091
1436.0,0.02143
1437.0,0.01642
1438.0,0.006829
1439.0,0.02931
1440.0,0.02195
1441.0,0.01652
1442.0,0.01834
1443.0,0.02337
1444.0,0.03258
