interpolation:linear
wavelength,value
280.0,3.5030000000000004e-20
280.5,9.966e-19
281.0,5.096e-18
281.5,4.346e-19
282.0,1.848e-18
282.5,5.206e-18
283.0,1.731e-17
283.5,2.854e-17
284.0,4.511e-16
284.5,1.275e-15
285.0,2.239e-15
285.5,1.341e-14
286.0,5.674e-14
286.5,2.704e-13
287.0,7.972e-13
287.5,3.133e-12
288.0,9.453e-12
288.5,3.699e-11
289.0,1.234e-10
289.5,4.6e-10
290.0,1.496e-09
290.5,3.466e-09
291.0,8.595e-09
291.5,2.931e-08
292.0,8.059e-08
292.5,1.273e-07
293.0,3.177e-07
293.5,9.557e-07
294.0,1.755e-06
294.5,2.308e-06
295.0,4.545e-06
295.5,1.12e-05
296.0,2.147e-05
296.5,2.981e-05
297.0,4.009e-05
297.5,0.0001063
298.0,0.0001659
298.5,0.0001656
299.0,0.0003622
299.5,0.0005916
300.0,0.0006452
300.5,0.0009262
301.0,0.001651
301.5,0.002597
302.0,0.002209
302.5,0.004183
303.0,0.007214
303.5,0.008847
304.0,0.008157
304.5,0.01159
305.0,0.0164
305.5,0.01799
306.0,0.01713
306.5,0.02075
307.0,0.02898
307.5,0.03639
308.0,0.03809
308.5,0.04375
309.0,0.04226
309.5,0.04653
310.0,0.0459
310.5,0.07368
311.0,0.09109
311.5,0.08736
312.0,0.08451
312.5,0.1006
313.0,0.1079
313.5,0.1059
314.0,0.1289
314.5,0.1103
315.0,0.144
315.5,0.1225
316.0,0.104
316.5,0.1456
317.0,0.1809
317.5,0.1896
318.0,0.1454
318.5,0.1747
319.0,0.2039
319.5,0.1707
320.0,0.207
320.5,0.2506
321.0,0.2165
321.5,0.207
322.0,0.2278
322.5,0.1978
323.0,0.1929
323.5,0.2323
324.0,0.2703
324.5,0.2767
325.0,0.2417
325.5,0.3056
326.0,0.3717
326.5,0.368
327.0,0.3683
327.5,0.3575
328.0,0.3231
328.5,0.3335
329.0,0.3935
329.5,0.4447
330.0,0.4502
330.5,0.3643
331.0,0.3725
331.5,0.3755
332.0,0.4008
332.5,0.3942
333.0,0.3943
333.5,0.36
334.0,0.3694
334.5,0.4219
335.0,0.3941
335.5,0.4603
336.0,0.3185
336.5,0.3739
337.0,0.3081
337.5,0.3837
338.0,0.3716
338.5,0.4287
339.0,0.4242
339.5,0.408
340.0,0.4796
340.5,0.432
341.0,0.4213
341.5,0.3867
342.0,0.4621
342.5,0.4322
343.0,0.4754
343.5,0.4477
344.0,0.3308
344.5,0.3342
345.0,0.442
345.5,0.4512
346.0,0.3834
346.5,0.434
347.0,0.466
347.5,0.3768
348.0,0.4294
348.5,0.4291
349.0,0.398
349.5,0.3941
350.0,0.4873
350.5,0.514
351.0,0.4592
351.5,0.4464
352.0,0.4794
352.5,0.374
353.0,0.471
353.5,0.5036
354.0,0.5227
354.5,0.5301
355.0,0.5284
355.5,0.4773
356.0,0.4993
356.5,0.4263
357.0,0.3523
357.5,0.4313
358.0,0.3418
358.5,0.292
359.0,0.4085
359.5,0.5207
360.0,0.5519
360.5,0.4411
361.0,0.4021
361.5,0.4629
362.0,0.4002
362.5,0.5538
363.0,0.4973
363.5,0.4581
364.0,0.5602
364.5,0.4788
365.0,0.4876
365.5,0.612
366.0,0.6484
366.5,0.6092
367.0,0.5932
367.5,0.6156
368.0,0.5387
368.5,0.5436
369.0,0.587
369.5,0.6257
370.0,0.667
370.5,0.5176
371.0,0.5531
371.5,0.692
372.0,0.4593
372.5,0.5507
373.0,0.5602
373.5,0.3645
374.0,0.5296
374.5,0.4386
375.0,0.4263
375.5,0.6365
376.0,0.5277
376.5,0.5468
377.0,0.579
377.5,0.6773
378.0,0.7343
378.5,0.694
379.0,0.5728
379.5,0.5233
380.0,0.5441
380.5,0.6589
381.0,0.6603
381.5,0.5234
382.0,0.4648
382.5,0.3962
383.0,0.3668
383.5,0.3533
384.0,0.3897
384.5,0.5732
385.0,0.5684
385.5,0.5294
386.0,0.4534
386.5,0.5956
387.0,0.4949
387.5,0.5559
388.0,0.5132
388.5,0.5073
389.0,0.5477
389.5,0.6633
390.0,0.6657
390.5,0.6127
391.0,0.7212
391.5,0.7356
392.0,0.6196
392.5,0.5547
393.0,0.3086
393.5,0.2244
394.0,0.4565
394.5,0.5805
395.0,0.7083
395.5,0.7196
396.0,0.6239
396.5,0.3647
397.0,0.2737
397.5,0.5566
398.0,0.7795
398.5,0.8058
399.0,0.8724
399.5,0.8696
400.0,0.903
401.0,0.9174
402.0,0.9678
403.0,0.9193
404.0,0.9052
405.0,0.9051
406.0,0.8903
407.0,0.8759
408.0,0.9101
409.0,0.9741
410.0,0.8511
411.0,0.9218
412.0,0.9899
413.0,0.9654
414.0,0.9772
415.0,0.9797
416.0,0.9967
417.0,0.9722
418.0,0.9542
419.0,0.9667
420.0,0.9624
421.0,1.007
422.0,0.9569
423.0,0.9347
424.0,0.9886
425.0,0.9867
426.0,0.9609
427.0,0.9429
428.0,0.9185
429.0,0.8698
430.0,0.7612
431.0,0.7545
432.0,0.974
433.0,0.9793
434.0,0.9094
435.0,0.9498
436.0,1.07
437.0,1.055
438.0,0.9608
439.0,0.9941
440.0,1.026
441.0,1.063
442.0,1.139
443.0,1.11
444.0,1.134
445.0,1.109
446.0,1.058
447.0,1.144
448.0,1.162
449.0,1.166
450.0,1.199
451.0,1.243
452.0,1.198
453.0,1.126
454.0,1.175
455.0,1.183
456.0,1.211
457.0,1.231
458.0,1.189
459.0,1.183
460.0,1.186
461.0,1.213
462.0,1.222
463.0,1.214
464.0,1.194
465.0,1.178
466.0,1.189
467.0,1.168
468.0,1.181
469.0,1.188
470.0,1.15
471.0,1.148
472.0,1.21
473.0,1.194
474.0,1.196
475.0,1.207
476.0,1.171
477.0,1.175
478.0,1.207
479.0,1.2
480.0,1.202
481.0,1.224
482.0,1.23
483.0,1.214
484.0,1.189
485.0,1.133
486.0,0.99
487.0,1.037
488.0,1.138
489.0,1.142
490.0,1.201
491.0,1.18
492.0,1.114
493.0,1.151
494.0,1.162
495.0,1.172
496.0,1.179
497.0,1.197
498.0,1.141
499.0,1.156
500.0,1.123
501.0,1.102
502.0,1.087
503.0,1.132
504.0,1.105
505.0,1.143
506.0,1.18
507.0,1.123
508.0,1.088
509.0,1.118
510.0,1.111
511.0,1.141
512.0,1.153
513.0,1.091
514.0,1.084
515.0,1.073
516.0,1.07
517.0,0.951
518.0,0.9998
519.0,1.049
520.0,1.087
521.0,1.097
522.0,1.098
523.0,1.079
524.0,1.118
525.0,1.131
526.0,1.081
527.0,1.019
528.0,1.078
529.0,1.136
530.0,1.12
531.0,1.137
532.0,1.098
533.0,1.066
534.0,1.097
535.0,1.121
536.0,1.131
537.0,1.086
538.0,1.105
539.0,1.096
540.0,1.051
541.0,1.058
542.0,1.092
543.0,1.08
544.0,1.099
545.0,1.095
546.0,1.1
547.0,1.1
548.0,1.086
549.0,1.089
550.0,1.102
551.0,1.089
552.0,1.096
553.0,1.077
554.0,1.103
555.0,1.105
556.0,1.091
557.0,1.057
558.0,1.049
559.0,1.03
560.0,1.043
561.0,1.057
562.0,1.049
563.0,1.078
564.0,1.049
565.0,1.04
566.0,1.025
567.0,1.045
568.0,1.037
569.0,1.013
570.0,1.013
571.0,1.006
572.0,1.032
573.0,1.043
574.0,1.04
575.0,1.021
576.0,1.011
577.0,1.022
578.0,1.006
579.0,1.01
580.0,1.028
581.0,1.032
582.0,1.051
583.0,1.053
584.0,1.062
585.0,1.036
586.0,1.014
587.0,1.037
588.0,1.014
589.0,0.902
590.0,0.943
591.0,0.9955
592.0,0.9843
593.0,0.9972
594.0,0.991
595.0,0.9678
596.0,1.003
597.0,0.9928
598.0,0.9893
599.0,0.9898
600.0,0.9904
601.0,0.9818
602.0,0.975
603.0,0.9908
604.0,1.007
605.0,1.002
606.0,0.9973
607.0,1.007
608.0,0.9954
609.0,0.9968
610.0,0.9894
611.0,0.9944
612.0,0.9913
613.0,0.9787
614.0,0.965
615.0,0.9858
616.0,0.9531
617.0,0.951
618.0,0.9875
619.0,0.9774
620.0,0.9836
621.0,0.9848
622.0,0.9735
623.0,0.9589
624.0,0.9423
625.0,0.9401
626.0,0.9541
627.0,0.9654
628.0,0.9097
629.0,0.9454
630.0,0.9239
631.0,0.942
632.0,0.9302
633.0,0.9574
634.0,0.9472
635.0,0.9615
636.0,0.9483
637.0,0.9635
638.0,0.9721
639.0,0.9609
640.0,0.9512
641.0,0.9503
642.0,0.9457
643.0,0.9584
644.0,0.955
645.0,0.9567
646.0,0.9354
647.0,0.9264
648.0,0.9275
649.0,0.9097
650.0,0.9113
651.0,0.9502
652.0,0.9138
653.0,0.9375
654.0,0.9268
655.0,0.8939
656.0,0.7911
657.0,0.8123
658.0,0.9094
659.0,0.9156
660.0,0.9192
661.0,0.9256
662.0,0.928
663.0,0.9095
664.0,0.9194
665.0,0.9196
666.0,0.92
667.0,0.9189
668.0,0.919
669.0,0.933
670.0,0.9288
671.0,0.9285
672.0,0.9204
673.0,0.9342
674.0,0.9305
675.0,0.922
676.0,0.9282
677.0,0.9189
678.0,0.9214
679.0,0.9064
680.0,0.9136
681.0,0.9075
682.0,0.9064
683.0,0.9046
684.0,0.9001
685.0,0.9077
686.0,0.9024
687.0,0.6343
688.0,0.7265
689.0,0.7285
690.0,0.7585
691.0,0.792
692.0,0.8158
693.0,0.8097
694.0,0.8029
695.0,0.8319
696.0,0.8331
697.0,0.8787
698.0,0.8651
699.0,0.8479
700.0,0.8378
701.0,0.8304
702.0,0.8348
703.0,0.8363
704.0,0.861
705.0,0.8623
706.0,0.8607
707.0,0.861
708.0,0.863
709.0,0.8629
710.0,0.8635
711.0,0.8619
712.0,0.8587
713.0,0.8506
714.0,0.8537
715.0,0.8281
716.0,0.8289
717.0,0.7318
718.0,0.6743
719.0,0.619
720.0,0.6494
721.0,0.7089
722.0,0.8023
723.0,0.7515
724.0,0.6822
725.0,0.673
726.0,0.7036
727.0,0.7106
728.0,0.6719
729.0,0.6924
730.0,0.7326
731.0,0.7024
732.0,0.7464
733.0,0.7854
734.0,0.8028
735.0,0.7869
736.0,0.7858
737.0,0.7891
738.0,0.7981
739.0,0.7825
740.0,0.8019
741.0,0.7933
742.0,0.7935
743.0,0.8135
744.0,0.8109
745.0,0.8108
746.0,0.8145
747.0,0.8162
748.0,0.8145
749.0,0.8051
750.0,0.8046
751.0,0.7965
752.0,0.7998
753.0,0.8038
754.0,0.8057
755.0,0.8011
756.0,0.8007
757.0,0.8019
758.0,0.792
759.0,0.7777
760.0,0.164
761.0,0.09353
762.0,0.4332
763.0,0.2372
764.0,0.3382
765.0,0.4334
766.0,0.5153
767.0,0.6337
768.0,0.7183
769.0,0.7306
770.0,0.7522
771.0,0.7568
772.0,0.7579
773.0,0.7631
774.0,0.7593
775.0,0.7535
776.0,0.7626
777.0,0.7526
778.0,0.748
779.0,0.7486
780.0,0.7444
781.0,0.7452
782.0,0.7498
783.0,0.7367
784.0,0.7402
785.0,0.7348
786.0,0.743
787.0,0.7314
788.0,0.7229
789.0,0.7228
790.0,0.7056
791.0,0.7097
792.0,0.7043
793.0,0.6931
794.0,0.7029
795.0,0.7153
796.0,0.696
797.0,0.697
798.0,0.7147
799.0,0.7107
800.0,0.699
801.0,0.6974
802.0,0.6953
803.0,0.6904
804.0,0.691
805.0,0.6881
806.0,0.7061
807.0,0.6979
808.0,0.6984
809.0,0.6863
810.0,0.6813
811.0,0.6835
812.0,0.6658
813.0,0.6531
814.0,0.5808
815.0,0.577
816.0,0.5379
817.0,0.547
818.0,0.528
819.0,0.5848
820.0,0.5529
821.0,0.6388
822.0,0.6218
823.0,0.4347
824.0,0.6063
825.0,0.6281
826.0,0.6065
827.0,0.6376
828.0,0.5473
829.0,0.6023
830.0,0.5952
831.0,0.597
832.0,0.5799
833.0,0.6136
834.0,0.5941
835.0,0.6479
836.0,0.6231
837.0,0.6495
838.0,0.6306
839.0,0.6394
840.0,0.6531
841.0,0.6444
842.0,0.6449
843.0,0.6436
844.0,0.6352
845.0,0.6559
846.0,0.6529
847.0,0.6405
848.0,0.6369
849.0,0.6188
850.0,0.5928
851.0,0.6281
852.0,0.6235
853.0,0.5998
854.0,0.5182
855.0,0.5689
856.0,0.6219
857.0,0.6355
858.0,0.6309
859.0,0.6313
860.0,0.6323
861.0,0.6289
862.0,0.6387
863.0,0.6538
864.0,0.6211
865.0,0.6156
866.0,0.5535
867.0,0.5777
868.0,0.6286
869.0,0.6155
870.0,0.6331
871.0,0.6245
872.0,0.6222
873.0,0.621
874.0,0.6136
875.0,0.6012
876.0,0.6074
877.0,0.6136
878.0,0.6203
879.0,0.6107
880.0,0.5976
881.0,0.5888
882.0,0.6016
883.0,0.6034
884.0,0.6007
885.0,0.6052
886.0,0.5774
887.0,0.5831
888.0,0.5919
889.0,0.5981
890.0,0.5938
891.0,0.5924
892.0,0.5762
893.0,0.5591
894.0,0.5414
895.0,0.5141
896.0,0.4853
897.0,0.4202
898.0,0.4566
899.0,0.3513
900.0,0.4655
901.0,0.3681
902.0,0.4267
903.0,0.4326
904.0,0.5373
905.0,0.5199
906.0,0.4874
907.0,0.4009
908.0,0.4082
909.0,0.4398
910.0,0.3931
911.0,0.4165
912.0,0.4345
913.0,0.3992
914.0,0.395
915.0,0.4279
916.0,0.3634
917.0,0.4567
918.0,0.3727
919.0,0.4639
920.0,0.4664
921.0,0.4847
922.0,0.4363
923.0,0.468
924.0,0.4474
925.0,0.4377
926.0,0.4425
927.0,0.4925
928.0,0.3693
929.0,0.3392
930.0,0.2698
931.0,0.2551
932.0,0.187
933.0,0.1537
934.0,0.08797
935.0,0.1559
936.0,0.09962
937.0,0.1013
938.0,0.1236
939.0,0.2472
940.0,0.2951
941.0,0.2258
942.0,0.2595
943.0,0.173
944.0,0.1801
945.0,0.2323
946.0,0.1214
947.0,0.2341
948.0,0.1725
949.0,0.3103
950.0,0.09105
951.0,0.305
952.0,0.168
953.0,0.2142
954.0,0.2597
955.0,0.2164
956.0,0.2085
957.0,0.1686
958.0,0.2912
959.0,0.2346
960.0,0.2629
961.0,0.2926
962.0,0.2771
963.0,0.3173
964.0,0.2914
965.0,0.3159
966.0,0.3165
967.0,0.3154
968.0,0.4153
969.0,0.4344
970.0,0.4
971.0,0.4546
972.0,0.4354
973.0,0.3824
974.0,0.3634
975.0,0.3759
976.0,0.3587
977.0,0.4048
978.0,0.386
979.0,0.4032
980.0,0.3798
981.0,0.4518
982.0,0.4332
983.0,0.4166
984.0,0.4642
985.0,0.4315
986.0,0.4715
987.0,0.4632
988.0,0.4623
989.0,0.4696
990.0,0.4595
991.0,0.4711
992.0,0.4737
993.0,0.464
994.0,0.4735
995.0,0.4728
996.0,0.4708
997.0,0.4714
998.0,0.4693
999.0,0.4675
1000.0,0.4644
1001.0,0.47
1002.0,0.4579
1003.0,0.4617
1004.0,0.4507
1005.0,0.4339
1006.0,0.451
1007.0,0.4604
1008.0,0.4581
1009.0,0.4558
1010.0,0.4539
1011.0,0.4581
1012.0,0.4543
1013.0,0.4569
1014.0,0.4537
1015.0,0.4507
1016.0,0.4487
1017.0,0.4499
1018.0,0.4481
1019.0,0.4389
1020.0,0.4458
1021.0,0.4451
1022.0,0.4418
1023.0,0.4465
1024.0,0.441
1025.0,0.4461
1026.0,0.4442
1027.0,0.4432
1028.0,0.4423
1029.0,0.4371
1030.0,0.44
1031.0,0.4383
1032.0,0.437
1033.0,0.4304
1034.0,0.4304
1035.0,0.4317
1036.0,0.434
1037.0,0.4269
1038.0,0.4288
1039.0,0.4286
1040.0,0.4269
1041.0,0.4286
1042.0,0.4256
1043.0,0.4243
1044.0,0.4258
1045.0,0.42
1046.0,0.4154
1047.0,0.4192
1048.0,0.4215
1049.0,0.42
1050.0,0.4181
1051.0,0.4175
1052.0,0.4159
1053.0,0.4126
1054.0,0.4135
1055.0,0.4138
1056.0,0.4124
1057.0,0.4112
1058.0,0.4011
1059.0,0.4016
1060.0,0.401
1061.0,0.4006
1062.0,0.4027
1063.0,0.3988
1064.0,0.4035
1065.0,0.4007
1066.0,0.3927
1067.0,0.3978
1068.0,0.3892
1069.0,0.3771
1070.0,0.39
1071.0,0.3958
1072.0,0.3914
1073.0,0.3857
1074.0,0.3954
1075.0,0.3764
1076.0,0.3951
1077.0,0.3885
1078.0,0.3813
1079.0,0.3886
1080.0,0.3825
1081.0,0.3707
1082.0,0.3759
1083.0,0.3769
1084.0,0.37
1085.0,0.3833
1086.0,0.3511
1087.0,0.3614
1088.0,0.3766
1089.0,0.3659
1090.0,0.3584
1091.0,0.3756
1092.0,0.3745
1093.0,0.32
1094.0,0.3429
1095.0,0.333
1096.0,0.3196
1097.0,0.3658
1098.0,0.3149
1099.0,0.3281
1100.0,0.3061
1101.0,0.3096
1102.0,0.2963
1103.0,0.2939
1104.0,0.2943
1105.0,0.3208
1106.0,0.2496
1107.0,0.3055
1108.0,0.2615
1109.0,0.2615
1110.0,0.3031
1111.0,0.209
1112.0,0.2593
1113.0,0.1685
1114.0,0.188
1115.0,0.1559
1116.0,0.1266
1117.0,0.0488
1118.0,0.137
1119.0,0.0698
1120.0,0.08794
1121.0,0.1156
1122.0,0.05021
1123.0,0.0794
1124.0,0.06704
1125.0,0.08703
1126.0,0.03185
1127.0,0.09803
1128.0,0.06032
1129.0,0.06376
1130.0,0.04264
1131.0,0.1819
1132.0,0.1435
1133.0,0.09305
1134.0,0.02505
1135.0,0.00932
1136.0,0.07838
1137.0,0.1794
1138.0,0.1268
1139.0,0.1851
1140.0,0.1562
1141.0,0.1205
1142.0,0.1378
1143.0,0.1939
1144.0,0.06978
1145.0,0.08969
1146.0,0.09676
1147.0,0.03565
1148.0,0.1679
1149.0,0.1353
1150.0,0.0749
1151.0,0.1259
1152.0,0.1534
1153.0,0.1484
1154.0,0.08722
1155.0,0.1931
1156.0,0.1747
1157.0,0.1948
1158.0,0.1926
1159.0,0.2067
1160.0,0.1779
1161.0,0.2166
1162.0,0.2179
1163.0,0.2898
1164.0,0.2503
1165.0,0.2377
1166.0,0.2349
1167.0,0.255
1168.0,0.2581
1169.0,0.2637
1170.0,0.2852
1171.0,0.2783
1172.0,0.2825
1173.0,0.2846
1174.0,0.2071
1175.0,0.2773
1176.0,0.3029
1177.0,0.2921
1178.0,0.2224
1179.0,0.3052
1180.0,0.2747
1181.0,0.2833
1182.0,0.1988
1183.0,0.2784
1184.0,0.262
1185.0,0.2539
1186.0,0.2976
1187.0,0.2845
1188.0,0.2025
1189.0,0.2653
1190.0,0.2908
1191.0,0.278
1192.0,0.2947
1193.0,0.283
1194.0,0.2913
1195.0,0.2768
1196.0,0.2674
1197.0,0.2907
1198.0,0.267
1199.0,0.23
1200.0,0.2796
1201.0,0.2707
1202.0,0.2685
1203.0,0.2663
1204.0,0.2345
1205.0,0.2738
1206.0,0.3008
1207.0,0.2681
1208.0,0.263
1209.0,0.2681
1210.0,0.2787
1211.0,0.2666
1212.0,0.2647
1213.0,0.2916
1214.0,0.2704
1215.0,0.2656
1216.0,0.2906
1217.0,0.2835
1218.0,0.2883
1219.0,0.285
1220.0,0.2885
1221.0,0.291
1222.0,0.2838
1223.0,0.2814
1224.0,0.2801
1225.0,0.2892
1226.0,0.2908
1227.0,0.2698
1228.0,0.2919
1229.0,0.2908
1230.0,0.2861
1231.0,0.2933
1232.0,0.2915
1233.0,0.2828
1234.0,0.2927
1235.0,0.2911
1236.0,0.293
1237.0,0.2895
1238.0,0.2921
1239.0,0.2883
1240.0,0.2893
1241.0,0.2883
1242.0,0.2874
1243.0,0.285
1244.0,0.2872
1245.0,0.2883
1246.0,0.2866
1247.0,0.2856
1248.0,0.2856
1249.0,0.2863
1250.0,0.2847
1251.0,0.2812
1252.0,0.281
1253.0,0.2792
1254.0,0.2767
1255.0,0.2808
1256.0,0.2738
1257.0,0.2724
1258.0,0.2769
1259.0,0.2681
1260.0,0.2694
1261.0,0.2558
1262.0,0.249
1263.0,0.2495
1264.0,0.2322
1265.0,0.2478
1266.0,0.2396
1267.0,0.2431
1268.0,0.2318
1269.0,0.1522
1270.0,0.2425
1271.0,0.2548
1272.0,0.2554
1273.0,0.2529
1274.0,0.2535
1275.0,0.2568
1276.0,0.259
1277.0,0.2604
1278.0,0.2647
1279.0,0.2624
1280.0,0.259
1281.0,0.2469
1282.0,0.2374
1283.0,0.2558
1284.0,0.262
1285.0,0.2636
1286.0,0.2669
1287.0,0.2633
1288.0,0.2631
1289.0,0.2558
1290.0,0.2607
1291.0,0.2642
1292.0,0.25
1293.0,0.2595
1294.0,0.2578
1295.0,0.257
1296.0,0.2465
1297.0,0.2341
1298.0,0.2501
1299.0,0.2596
1300.0,0.223
1301.0,0.2292
1302.0,0.2493
1303.0,0.2197
1304.0,0.1903
1305.0,0.2444
1306.0,0.2446
1307.0,0.1934
1308.0,0.2195
1309.0,0.243
1310.0,0.1899
1311.0,0.2112
1312.0,0.2059
1313.0,0.2024
1314.0,0.1822
1315.0,0.1805
1316.0,0.2083
1317.0,0.1977
1318.0,0.2136
1319.0,0.1704
1320.0,0.1644
1321.0,0.1903
1322.0,0.1927
1323.0,0.1478
1324.0,0.1671
1325.0,0.2055
1326.0,0.1782
1327.0,0.1704
1328.0,0.1478
1329.0,0.1133
1330.0,0.1464
1331.0,0.09107
1332.0,0.09311
1333.0,0.1289
1334.0,0.108
1335.0,0.1472
1336.0,0.1178
1337.0,0.105
1338.0,0.1135
1339.0,0.1127
1340.0,0.1089
1341.0,0.1079
1342.0,0.1132
1343.0,0.07997
1344.0,0.04774
1345.0,0.06858
1346.0,0.03622
1347.0,0.0372
1348.0,0.002821
1349.0,0.009685
1350.0,0.009741
1351.0,0.002724
1352.0,0.0008541
1353.0,5.167e-05
1354.0,0.0001599
1355.0,1.821e-06
1356.0,2.559e-05
1357.0,3.879e-05
1358.0,2.128e-06
1359.0,3.468e-07
1360.0,1.067e-06
1361.0,2.069e-09
1362.0,7.221e-12
1363.0,1.551e-06
1364.0,6.559e-07
1365.0,3.406e-12
1366.0,6.328e-06
1367.0,2.494e-06
1368.0,4.74e-14
1369.0,2.493e-07
1370.0,1.37e-07
1371.0,8.932e-09
1372.0,1.374e-06
1373.0,2.324e-05
1374.0,9.591e-05
1375.0,0.0001746
1376.0,0.000143
1377.0,6.737e-05
1378.0,0.0006227
1379.0,2.848e-05
1380.0,4.404e-05
1381.0,1.244e-06
1382.0,1.277e-06
1383.0,2.129e-08
1384.0,2.941e-07
1385.0,1.072e-06
1386.0,1.226e-06
1387.0,0.0001065
1388.0,2.135e-06
1389.0,0.0003179
1390.0,0.0002737
1391.0,0.0001878
1392.0,1.278e-05
1393.0,6.35e-05
1394.0,3.961e-05
1395.0,3.373e-07
1396.0,2.771e-09
1397.0,2.655e-05
1398.0,0.0007076
1399.0,0.0004483
1400.0,1.381e-09
1401.0,4.733e-09
1402.0,0.001067
1403.0,0.00138
1404.0,0.0004261
1405.0,1.803e-07
1406.0,0.001163
1407.0,9.993e-05
1408.0,0.0009443
1409.0,0.0003459
1410.0,0.000263
1411.0,0.001207
1412.0,0.001564
1413.0,0.01426
1414.0,0.0002054
1415.0,0.0001029
1416.0,0.02202
1417.0,0.007106
1418.0,0.008145
1419.0,0.001285
1420.0,0.005001
1421.0,0.005421
1422.0,0.02862
1423.0,0.005662
1424.0,0.01051
1425.0,0.01562
1426.0,0.01733
1427.0,0.03095
1428.0,0.002681
1429.0,0.02355
1430.0,0.03915
1431.0,0.04276
1432.0,0.002122
1433.0,0.02753
1434.0,0.01417
1435.0,0.01472
1436.0,0.02754
1437.0,0.0211
1438.0,0.009149
1439.0,0.03707
1440.0,0.0278
1441.0,0.02159
1442.0,0.02389
1443.0,0.02938
1444.0,0.04043
1445.0,0.03212
1446.0,0.01459
1447.0,0.02297
1448.0,0.07445
1449.0,0.06508
1450.0,0.01701
