interpolation:linear
wavelength,value
280.0,3.843e-20
280.5,1.088e-18
281.0,5.557e-18
281.5,4.411e-19
282.0,1.895e-18
282.5,5.348e-18
283.0,1.78e-17
283.5,2.936e-17
284.0,4.636e-16
284.5,1.309e-15
285.0,2.367e-15
285.5,1.431e-14
286.0,6.074e-14
286.5,2.909e-13
287.0,8.607e-13
287.5,3.395e-12
288.0,1.013e-11
288.5,3.982e-11
289.0,1.333e-10
289.5,4.989e-10
290.0,1.628e-09
290.5,3.782e-09
291.0,9.411e-09
291.5,3.223e-08
292.0,8.826e-08
292.5,1.393e-07
293.0,3.47e-07
293.5,1.041e-06
294.0,1.909e-06
294.5,2.505e-06
295.0,4.921e-06
295.5,1.205e-05
296.0,2.304e-05
296.5,3.191e-05
297.0,4.281e-05
297.5,0.0001132
298.0,0.0001762
298.5,0.0001754
299.0,0.0003829
299.5,0.0006231
300.0,0.0006782
300.5,0.0009714
301.0,0.001725
301.5,0.002704
302.0,0.002295
302.5,0.004341
303.0,0.007473
303.5,0.009155
304.0,0.008436
304.5,0.01196
305.0,0.01689
305.5,0.01851
306.0,0.01761
306.5,0.02131
307.0,0.02972
307.5,0.03726
308.0,0.03898
308.5,0.04473
309.0,0.04319
309.5,0.04749
310.0,0.04683
310.5,0.07514
311.0,0.09286
311.5,0.08903
312.0,0.08605
312.5,0.1024
313.0,0.1097
313.5,0.1077
314.0,0.131
314.5,0.112
315.0,0.1462
315.5,0.1245
316.0,0.1056
316.5,0.1477
317.0,0.1835
317.5,0.1923
318.0,0.1474
318.5,0.177
319.0,0.2065
319.5,0.173
320.0,0.2098
320.5,0.2537
321.0,0.2191
321.5,0.2094
322.0,0.2306
322.5,0.2003
323.0,0.1952
323.5,0.235
324.0,0.2733
324.5,0.2799
325.0,0.2446
325.5,0.3091
326.0,0.3758
326.5,0.372
327.0,0.3723
327.5,0.3615
328.0,0.3268
328.5,0.3371
329.0,0.3977
329.5,0.4494
330.0,0.4549
330.5,0.3682
331.0,0.3766
331.5,0.3795
332.0,0.4049
332.5,0.3983
333.0,0.3984
333.5,0.3638
334.0,0.3732
334.5,0.4262
335.0,0.3981
335.5,0.4649
336.0,0.3217
336.5,0.3777
337.0,0.3112
337.5,0.3877
338.0,0.3753
338.5,0.433
339.0,0.4285
339.5,0.4121
340.0,0.4844
340.5,0.4363
341.0,0.4256
341.5,0.3906
342.0,0.4667
342.5,0.4365
343.0,0.4802
343.5,0.4522
344.0,0.334
344.5,0.3375
345.0,0.4464
345.5,0.4556
346.0,0.3871
346.5,0.4383
347.0,0.4706
347.5,0.3805
348.0,0.4336
348.5,0.4333
349.0,0.4019
349.5,0.3979
350.0,0.4921
350.5,0.519
351.0,0.4637
351.5,0.4508
352.0,0.484
352.5,0.3776
353.0,0.4756
353.5,0.5084
354.0,0.5278
354.5,0.5353
355.0,0.5335
355.5,0.4819
356.0,0.5041
356.5,0.4304
357.0,0.3557
357.5,0.4354
358.0,0.3451
358.5,0.2949
359.0,0.4124
359.5,0.5257
360.0,0.5572
360.5,0.4453
361.0,0.4059
361.5,0.4673
362.0,0.404
362.5,0.5591
363.0,0.5021
363.5,0.4624
364.0,0.5655
364.5,0.4833
365.0,0.4923
365.5,0.6178
366.0,0.6545
366.5,0.6149
367.0,0.5988
367.5,0.6214
368.0,0.5438
368.5,0.5487
369.0,0.5925
369.5,0.6316
370.0,0.6732
370.5,0.5225
371.0,0.5583
371.5,0.6985
372.0,0.4636
372.5,0.5558
373.0,0.5654
373.5,0.3679
374.0,0.5345
374.5,0.4426
375.0,0.4303
375.5,0.6424
376.0,0.5326
376.5,0.5519
377.0,0.5843
377.5,0.6836
378.0,0.7411
378.5,0.7005
379.0,0.5781
379.5,0.5281
380.0,0.5491
380.5,0.665
381.0,0.6664
381.5,0.5282
382.0,0.4691
382.5,0.3998
383.0,0.3702
383.5,0.3565
384.0,0.3933
384.5,0.5784
385.0,0.5736
385.5,0.5342
386.0,0.4575
386.5,0.601
387.0,0.4994
387.5,0.5609
388.0,0.5179
388.5,0.5119
389.0,0.5526
389.5,0.6693
390.0,0.6718
390.5,0.6182
391.0,0.7277
391.5,0.7423
392.0,0.6252
392.5,0.5597
393.0,0.3114
393.5,0.2264
394.0,0.4607
394.5,0.5857
395.0,0.7147
395.5,0.726
396.0,0.6295
396.5,0.368
397.0,0.2761
397.5,0.5616
398.0,0.7865
398.5,0.813
399.0,0.8802
399.5,0.8774
400.0,0.9111
401.0,0.9257
402.0,0.9765
403.0,0.9276
404.0,0.9133
405.0,0.9132
406.0,0.8982
407.0,0.8836
408.0,0.9182
409.0,0.9827
410.0,0.8586
411.0,0.93
412.0,0.9987
413.0,0.974
414.0,0.9858
415.0,0.9883
416.0,1.005
417.0,0.9807
418.0,0.9626
419.0,0.9751
420.0,0.9708
421.0,1.016
422.0,0.9652
423.0,0.9428
424.0,0.9972
425.0,0.9953
426.0,0.9692
427.0,0.9511
428.0,0.9265
429.0,0.8773
430.0,0.7677
431.0,0.761
432.0,0.9824
433.0,0.9877
434.0,0.9172
435.0,0.9579
436.0,1.079
437.0,1.064
438.0,0.969
439.0,1.003
440.0,1.034
441.0,1.072
442.0,1.149
443.0,1.12
444.0,1.144
445.0,1.119
446.0,1.067
447.0,1.154
448.0,1.172
449.0,1.176
450.0,1.209
451.0,1.254
452.0,1.208
453.0,1.136
454.0,1.185
455.0,1.193
456.0,1.221
457.0,1.241
458.0,1.199
459.0,1.193
460.0,1.196
461.0,1.224
462.0,1.233
463.0,1.224
464.0,1.204
465.0,1.188
466.0,1.199
467.0,1.177
468.0,1.191
469.0,1.198
470.0,1.159
471.0,1.158
472.0,1.22
473.0,1.204
474.0,1.206
475.0,1.217
476.0,1.181
477.0,1.185
478.0,1.217
479.0,1.21
480.0,1.212
481.0,1.234
482.0,1.24
483.0,1.224
484.0,1.199
485.0,1.142
486.0,0.9982
487.0,1.046
488.0,1.147
489.0,1.151
490.0,1.211
491.0,1.19
492.0,1.123
493.0,1.16
494.0,1.172
495.0,1.182
496.0,1.189
497.0,1.207
498.0,1.151
499.0,1.166
500.0,1.132
501.0,1.112
502.0,1.096
503.0,1.142
504.0,1.115
505.0,1.153
506.0,1.19
507.0,1.132
508.0,1.097
509.0,1.127
510.0,1.121
511.0,1.15
512.0,1.163
513.0,1.1
514.0,1.093
515.0,1.082
516.0,1.079
517.0,0.9588
518.0,1.008
519.0,1.057
520.0,1.096
521.0,1.106
522.0,1.107
523.0,1.088
524.0,1.127
525.0,1.141
526.0,1.09
527.0,1.027
528.0,1.087
529.0,1.146
530.0,1.129
531.0,1.146
532.0,1.107
533.0,1.074
534.0,1.106
535.0,1.13
536.0,1.14
537.0,1.095
538.0,1.114
539.0,1.105
540.0,1.059
541.0,1.067
542.0,1.101
543.0,1.089
544.0,1.108
545.0,1.104
546.0,1.11
547.0,1.109
548.0,1.095
549.0,1.099
550.0,1.112
551.0,1.098
552.0,1.106
553.0,1.086
554.0,1.112
555.0,1.114
556.0,1.1
557.0,1.066
558.0,1.058
559.0,1.039
560.0,1.052
561.0,1.066
562.0,1.058
563.0,1.087
564.0,1.058
565.0,1.049
566.0,1.034
567.0,1.054
568.0,1.045
569.0,1.022
570.0,1.022
571.0,1.015
572.0,1.04
573.0,1.052
574.0,1.049
575.0,1.029
576.0,1.02
577.0,1.031
578.0,1.015
579.0,1.018
580.0,1.037
581.0,1.041
582.0,1.06
583.0,1.062
584.0,1.071
585.0,1.044
586.0,1.023
587.0,1.046
588.0,1.022
589.0,0.9098
590.0,0.9511
591.0,1.004
592.0,0.9928
593.0,1.006
594.0,0.9995
595.0,0.9762
596.0,1.011
597.0,1.001
598.0,0.9977
599.0,0.9981
600.0,0.9988
601.0,0.99
602.0,0.9832
603.0,0.9991
604.0,1.016
605.0,1.01
606.0,1.006
607.0,1.015
608.0,1.004
609.0,1.005
610.0,0.9976
611.0,1.003
612.0,0.9995
613.0,0.9868
614.0,0.973
615.0,0.9939
616.0,0.961
617.0,0.9589
618.0,0.9956
619.0,0.9854
620.0,0.9917
621.0,0.9929
622.0,0.9816
623.0,0.9669
624.0,0.95
625.0,0.9479
626.0,0.962
627.0,0.9734
628.0,0.9176
629.0,0.9534
630.0,0.9317
631.0,0.9498
632.0,0.9379
633.0,0.9653
634.0,0.9549
635.0,0.9694
636.0,0.956
637.0,0.9713
638.0,0.98
639.0,0.9686
640.0,0.9589
641.0,0.958
642.0,0.9533
643.0,0.9661
644.0,0.9626
645.0,0.9644
646.0,0.9429
647.0,0.934
648.0,0.9351
649.0,0.9172
650.0,0.9186
651.0,0.9578
652.0,0.9213
653.0,0.9451
654.0,0.9342
655.0,0.9011
656.0,0.7975
657.0,0.8188
658.0,0.9167
659.0,0.9228
660.0,0.9265
661.0,0.933
662.0,0.9354
663.0,0.9167
664.0,0.9267
665.0,0.9268
666.0,0.9273
667.0,0.9261
668.0,0.9262
669.0,0.9403
670.0,0.9361
671.0,0.9357
672.0,0.9276
673.0,0.9415
674.0,0.9378
675.0,0.9292
676.0,0.9354
677.0,0.926
678.0,0.9285
679.0,0.9134
680.0,0.9207
681.0,0.9146
682.0,0.9134
683.0,0.9116
684.0,0.9071
685.0,0.9147
686.0,0.9094
687.0,0.6409
688.0,0.7333
689.0,0.7353
690.0,0.7653
691.0,0.7988
692.0,0.8226
693.0,0.8164
694.0,0.8096
695.0,0.8387
696.0,0.8398
697.0,0.8856
698.0,0.8719
699.0,0.8547
700.0,0.8445
701.0,0.8371
702.0,0.8415
703.0,0.843
704.0,0.8678
705.0,0.8691
706.0,0.8675
707.0,0.8678
708.0,0.8697
709.0,0.8696
710.0,0.8702
711.0,0.8686
712.0,0.8654
713.0,0.8572
714.0,0.8603
715.0,0.8346
716.0,0.8354
717.0,0.7382
718.0,0.6803
719.0,0.6246
720.0,0.6553
721.0,0.7149
722.0,0.8088
723.0,0.7577
724.0,0.6881
725.0,0.6789
726.0,0.7097
727.0,0.7167
728.0,0.6778
729.0,0.6983
730.0,0.7388
731.0,0.7084
732.0,0.7526
733.0,0.7917
734.0,0.8092
735.0,0.7931
736.0,0.792
737.0,0.7953
738.0,0.8043
739.0,0.7886
740.0,0.8081
741.0,0.7994
742.0,0.7996
743.0,0.8198
744.0,0.8171
745.0,0.8169
746.0,0.8207
747.0,0.8224
748.0,0.8207
749.0,0.8113
750.0,0.8107
751.0,0.8025
752.0,0.8059
753.0,0.81
754.0,0.8118
755.0,0.8072
756.0,0.8068
757.0,0.808
758.0,0.798
759.0,0.7837
760.0,0.1672
761.0,0.09571
762.0,0.4383
763.0,0.2411
764.0,0.3428
765.0,0.4385
766.0,0.5206
767.0,0.6394
768.0,0.7242
769.0,0.7364
770.0,0.758
771.0,0.7626
772.0,0.7637
773.0,0.7689
774.0,0.7651
775.0,0.7592
776.0,0.7684
777.0,0.7583
778.0,0.7537
779.0,0.7543
780.0,0.75
781.0,0.7508
782.0,0.7554
783.0,0.7423
784.0,0.7458
785.0,0.7404
786.0,0.7486
787.0,0.737
788.0,0.7285
789.0,0.7284
790.0,0.7111
791.0,0.7152
792.0,0.7097
793.0,0.6985
794.0,0.7082
795.0,0.7208
796.0,0.7014
797.0,0.7024
798.0,0.7202
799.0,0.7161
800.0,0.7044
801.0,0.7028
802.0,0.7007
803.0,0.6957
804.0,0.6964
805.0,0.6934
806.0,0.7115
807.0,0.7032
808.0,0.7037
809.0,0.6915
810.0,0.6866
811.0,0.6889
812.0,0.6711
813.0,0.6584
814.0,0.5858
815.0,0.582
816.0,0.5426
817.0,0.5518
818.0,0.5326
819.0,0.5897
820.0,0.5576
821.0,0.6439
822.0,0.6268
823.0,0.4388
824.0,0.6113
825.0,0.633
826.0,0.6114
827.0,0.6427
828.0,0.552
829.0,0.6072
830.0,0.6
831.0,0.6019
832.0,0.5847
833.0,0.6184
834.0,0.5989
835.0,0.6529
836.0,0.6281
837.0,0.6545
838.0,0.6355
839.0,0.6443
840.0,0.6581
841.0,0.6493
842.0,0.6498
843.0,0.6485
844.0,0.64
845.0,0.6609
846.0,0.6579
847.0,0.6453
848.0,0.6417
849.0,0.6235
850.0,0.5973
851.0,0.6329
852.0,0.6282
853.0,0.6043
854.0,0.5221
855.0,0.5732
856.0,0.6266
857.0,0.6403
858.0,0.6357
859.0,0.636
860.0,0.6371
861.0,0.6336
862.0,0.6435
863.0,0.6587
864.0,0.6258
865.0,0.6203
866.0,0.5577
867.0,0.582
868.0,0.6333
869.0,0.6202
870.0,0.6378
871.0,0.6291
872.0,0.6269
873.0,0.6256
874.0,0.6182
875.0,0.6057
876.0,0.612
877.0,0.6182
878.0,0.6249
879.0,0.6153
880.0,0.6021
881.0,0.5933
882.0,0.6062
883.0,0.6079
884.0,0.6052
885.0,0.6097
886.0,0.5818
887.0,0.5875
888.0,0.5964
889.0,0.6026
890.0,0.5983
891.0,0.5969
892.0,0.5806
893.0,0.5635
894.0,0.5457
895.0,0.5183
896.0,0.4894
897.0,0.4239
898.0,0.4606
899.0,0.3546
900.0,0.4694
901.0,0.3716
902.0,0.4303
903.0,0.4365
904.0,0.5416
905.0,0.5241
906.0,0.4914
907.0,0.4046
908.0,0.4118
909.0,0.4436
910.0,0.3968
911.0,0.4202
912.0,0.4383
913.0,0.4029
914.0,0.3987
915.0,0.4318
916.0,0.3668
917.0,0.4606
918.0,0.3762
919.0,0.4678
920.0,0.4703
921.0,0.4886
922.0,0.44
923.0,0.4718
924.0,0.4512
925.0,0.4415
926.0,0.4463
927.0,0.4966
928.0,0.3729
929.0,0.3427
930.0,0.2728
931.0,0.2579
932.0,0.1893
933.0,0.1558
934.0,0.08941
935.0,0.1578
936.0,0.101
937.0,0.1027
938.0,0.1253
939.0,0.2499
940.0,0.2982
941.0,0.2284
942.0,0.2624
943.0,0.1751
944.0,0.1821
945.0,0.2349
946.0,0.123
947.0,0.2368
948.0,0.1745
949.0,0.3136
950.0,0.09243
951.0,0.3082
952.0,0.1701
953.0,0.2167
954.0,0.2625
955.0,0.2188
956.0,0.2107
957.0,0.1708
958.0,0.294
959.0,0.2371
960.0,0.2657
961.0,0.2955
962.0,0.28
963.0,0.3204
964.0,0.2943
965.0,0.3189
966.0,0.3196
967.0,0.3184
968.0,0.4187
969.0,0.4381
970.0,0.4034
971.0,0.4582
972.0,0.439
973.0,0.3858
974.0,0.3667
975.0,0.3792
976.0,0.362
977.0,0.4082
978.0,0.3893
979.0,0.4066
980.0,0.383
981.0,0.4554
982.0,0.4367
983.0,0.42
984.0,0.4678
985.0,0.435
986.0,0.4751
987.0,0.4668
988.0,0.4659
989.0,0.4731
990.0,0.4631
991.0,0.4746
992.0,0.4773
993.0,0.4676
994.0,0.477
995.0,0.4763
996.0,0.4744
997.0,0.475
998.0,0.4728
999.0,0.471
1000.0,0.4679
1001.0,0.4735
1002.0,0.4614
1003.0,0.4652
1004.0,0.4541
1005.0,0.4371
1006.0,0.4543
1007.0,0.4639
1008.0,0.4615
1009.0,0.4592
1010.0,0.4574
1011.0,0.4615
1012.0,0.4577
1013.0,0.4603
1014.0,0.4571
1015.0,0.4541
1016.0,0.4521
1017.0,0.4533
1018.0,0.4515
1019.0,0.4422
1020.0,0.4491
1021.0,0.4485
1022.0,0.4451
1023.0,0.4498
1024.0,0.4443
1025.0,0.4494
1026.0,0.4476
1027.0,0.4465
1028.0,0.4456
1029.0,0.4404
1030.0,0.4433
1031.0,0.4416
1032.0,0.4402
1033.0,0.4336
1034.0,0.4336
1035.0,0.435
1036.0,0.4373
1037.0,0.4301
1038.0,0.4321
1039.0,0.4318
1040.0,0.4301
1041.0,0.4318
1042.0,0.4288
1043.0,0.4275
1044.0,0.429
1045.0,0.4232
1046.0,0.4186
1047.0,0.4223
1048.0,0.4247
1049.0,0.4232
1050.0,0.4213
1051.0,0.4207
1052.0,0.419
1053.0,0.4157
1054.0,0.4167
1055.0,0.417
1056.0,0.4155
1057.0,0.4143
1058.0,0.4042
1059.0,0.4046
1060.0,0.4041
1061.0,0.4036
1062.0,0.4058
1063.0,0.4018
1064.0,0.4066
1065.0,0.4037
1066.0,0.3957
1067.0,0.4008
1068.0,0.3921
1069.0,0.38
1070.0,0.393
1071.0,0.3988
1072.0,0.3944
1073.0,0.3887
1074.0,0.3984
1075.0,0.3794
1076.0,0.3981
1077.0,0.3915
1078.0,0.3843
1079.0,0.3916
1080.0,0.3855
1081.0,0.3736
1082.0,0.3788
1083.0,0.3797
1084.0,0.3729
1085.0,0.3863
1086.0,0.3539
1087.0,0.3642
1088.0,0.3795
1089.0,0.3687
1090.0,0.3612
1091.0,0.3785
1092.0,0.3774
1093.0,0.3226
1094.0,0.3456
1095.0,0.3358
1096.0,0.3223
1097.0,0.3686
1098.0,0.3176
1099.0,0.3308
1100.0,0.3087
1101.0,0.3122
1102.0,0.299
1103.0,0.2966
1104.0,0.2969
1105.0,0.3235
1106.0,0.2521
1107.0,0.3081
1108.0,0.264
1109.0,0.2639
1110.0,0.3058
1111.0,0.2111
1112.0,0.2617
1113.0,0.1704
1114.0,0.19
1115.0,0.1577
1116.0,0.1282
1117.0,0.04963
1118.0,0.1386
1119.0,0.0708
1120.0,0.08922
1121.0,0.1172
1122.0,0.05104
1123.0,0.08055
1124.0,0.06801
1125.0,0.08824
1126.0,0.03244
1127.0,0.09939
1128.0,0.06132
1129.0,0.06479
1130.0,0.0434
1131.0,0.1841
1132.0,0.1452
1133.0,0.0944
1134.0,0.02553
1135.0,0.009496
1136.0,0.07958
1137.0,0.1816
1138.0,0.1284
1139.0,0.187
1140.0,0.158
1141.0,0.122
1142.0,0.1394
1143.0,0.1961
1144.0,0.07075
1145.0,0.09098
1146.0,0.09815
1147.0,0.03632
1148.0,0.1698
1149.0,0.1369
1150.0,0.07593
1151.0,0.1274
1152.0,0.1552
1153.0,0.15
1154.0,0.0885
1155.0,0.1951
1156.0,0.1766
1157.0,0.1968
1158.0,0.1946
1159.0,0.2087
1160.0,0.1798
1161.0,0.2187
1162.0,0.22
1163.0,0.2922
1164.0,0.2525
1165.0,0.2399
1166.0,0.237
1167.0,0.2572
1168.0,0.2605
1169.0,0.266
1170.0,0.2876
1171.0,0.2806
1172.0,0.2848
1173.0,0.287
1174.0,0.2092
1175.0,0.2796
1176.0,0.3052
1177.0,0.2944
1178.0,0.2244
1179.0,0.3076
1180.0,0.277
1181.0,0.2856
1182.0,0.2007
1183.0,0.2807
1184.0,0.2643
1185.0,0.2561
1186.0,0.3
1187.0,0.2869
1188.0,0.2044
1189.0,0.2675
1190.0,0.2931
1191.0,0.2803
1192.0,0.297
1193.0,0.2853
1194.0,0.2936
1195.0,0.2791
1196.0,0.2697
1197.0,0.293
1198.0,0.2691
1199.0,0.2321
1200.0,0.2819
1201.0,0.2729
1202.0,0.2707
1203.0,0.2685
1204.0,0.2365
1205.0,0.276
1206.0,0.3031
1207.0,0.2703
1208.0,0.2651
1209.0,0.2703
1210.0,0.2809
1211.0,0.2687
1212.0,0.2669
1213.0,0.2939
1214.0,0.2726
1215.0,0.2678
1216.0,0.2928
1217.0,0.2858
1218.0,0.2905
1219.0,0.2873
1220.0,0.2907
1221.0,0.2933
1222.0,0.286
1223.0,0.2836
1224.0,0.2824
1225.0,0.2914
1226.0,0.293
1227.0,0.2719
1228.0,0.2941
1229.0,0.293
1230.0,0.2883
1231.0,0.2955
1232.0,0.2937
1233.0,0.285
1234.0,0.2949
1235.0,0.2933
1236.0,0.2952
1237.0,0.2917
1238.0,0.2942
1239.0,0.2905
1240.0,0.2915
1241.0,0.2905
1242.0,0.2895
1243.0,0.2872
1244.0,0.2893
1245.0,0.2905
1246.0,0.2888
1247.0,0.2878
1248.0,0.2877
1249.0,0.2885
1250.0,0.2868
1251.0,0.2834
1252.0,0.2831
1253.0,0.2813
1254.0,0.2789
1255.0,0.283
1256.0,0.2759
1257.0,0.2745
1258.0,0.279
1259.0,0.2702
1260.0,0.2715
1261.0,0.2579
1262.0,0.251
1263.0,0.2516
1264.0,0.2343
1265.0,0.2499
1266.0,0.2417
1267.0,0.2451
1268.0,0.2338
1269.0,0.1541
1270.0,0.2445
1271.0,0.2568
1272.0,0.2575
1273.0,0.2549
1274.0,0.2555
1275.0,0.2589
1276.0,0.2611
1277.0,0.2624
1278.0,0.2668
1279.0,0.2644
1280.0,0.261
1281.0,0.2488
1282.0,0.2392
1283.0,0.2577
1284.0,0.264
1285.0,0.2656
1286.0,0.2689
1287.0,0.2653
1288.0,0.2651
1289.0,0.2578
1290.0,0.2627
1291.0,0.2662
1292.0,0.252
1293.0,0.2615
1294.0,0.2597
1295.0,0.259
1296.0,0.2485
1297.0,0.2361
1298.0,0.2521
1299.0,0.2616
1300.0,0.2249
1301.0,0.2311
1302.0,0.2512
1303.0,0.2215
1304.0,0.1921
1305.0,0.2463
1306.0,0.2465
1307.0,0.1951
1308.0,0.2214
1309.0,0.2449
1310.0,0.1916
1311.0,0.2129
1312.0,0.2077
1313.0,0.2042
1314.0,0.1839
1315.0,0.1822
1316.0,0.2101
1317.0,0.1994
1318.0,0.2154
1319.0,0.1721
1320.0,0.1659
1321.0,0.192
1322.0,0.1945
1323.0,0.1493
1324.0,0.1687
1325.0,0.2073
1326.0,0.1798
1327.0,0.172
1328.0,0.1493
1329.0,0.1146
1330.0,0.1479
1331.0,0.09222
1332.0,0.09422
1333.0,0.1304
1334.0,0.1091
1335.0,0.1488
1336.0,0.1191
1337.0,0.1062
1338.0,0.1148
1339.0,0.1139
1340.0,0.1101
1341.0,0.1092
1342.0,0.1146
1343.0,0.08115
1344.0,0.04843
1345.0,0.06956
1346.0,0.03689
1347.0,0.03791
1348.0,0.002906
1349.0,0.009945
1350.0,0.009979
1351.0,0.002817
1352.0,0.0008919
1353.0,5.458e-05
1354.0,0.0001677
1355.0,1.954e-06
1356.0,2.705e-05
1357.0,4.1e-05
1358.0,2.281e-06
1359.0,3.779e-07
1360.0,1.151e-06
1361.0,2.312e-09
1362.0,8.205e-12
1363.0,1.679e-06
1364.0,7.114e-07
1365.0,3.943e-12
1366.0,6.819e-06
1367.0,2.683e-06
1368.0,5.697e-14
1369.0,2.707e-07
1370.0,1.498e-07
1371.0,9.858e-09
1372.0,1.478e-06
1373.0,2.471e-05
1374.0,0.0001012
1375.0,0.0001841
1376.0,0.00015
1377.0,7.077e-05
1378.0,0.0006514
1379.0,2.993e-05
1380.0,4.649e-05
1381.0,1.321e-06
1382.0,1.377e-06
1383.0,2.311e-08
1384.0,3.202e-07
1385.0,1.147e-06
1386.0,1.328e-06
1387.0,0.0001128
1388.0,2.265e-06
1389.0,0.0003339
1390.0,0.0002874
1391.0,0.0001976
1392.0,1.35e-05
1393.0,6.675e-05
1394.0,4.213e-05
1395.0,3.626e-07
1396.0,3.083e-09
1397.0,2.801e-05
1398.0,0.0007406
1399.0,0.0004692
1400.0,1.55e-09
1401.0,5.247e-09
1402.0,0.001106
1403.0,0.001432
1404.0,0.0004427
1405.0,1.95e-07
1406.0,0.001212
1407.0,0.000104
1408.0,0.0009834
1409.0,0.0003624
1410.0,0.0002746
1411.0,0.001253
1412.0,0.001618
1413.0,0.01462
1414.0,0.0002144
1415.0,0.0001077
1416.0,0.02246
1417.0,0.007293
1418.0,0.008361
1419.0,0.001321
1420.0,0.005135
1421.0,0.00557
1422.0,0.02919
1423.0,0.005786
1424.0,0.01073
1425.0,0.01596
1426.0,0.01767
1427.0,0.03147
1428.0,0.002764
1429.0,0.02399
1430.0,0.03977
1431.0,0.04341
1432.0,0.002189
1433.0,0.02798
1434.0,0.01442
1435.0,0.01505
1436.0,0.02805
1437.0,0.02149
1438.0,0.00935
1439.0,0.03772
1440.0,0.02829
1441.0,0.02203
1442.0,0.02435
1443.0,0.02988
1444.0,0.04108
1445.0,0.0327
1446.0,0.01488
1447.0,0.02341
1448.0,0.07543
1449.0,0.06601
1450.0,0.01734
1451.0,0.007089
