interpolation:linear
wavelength,value
280.0,2.716e-22
280.5,8.937e-21
281.0,4.7920000000000006e-20
281.5,4.007e-19
282.0,6.562e-19
282.5,1.628e-18
283.0,5.15e-18
283.5,8.386e-18
284.0,1.382e-16
284.5,4.032e-16
285.0,6.631e-16
285.5,3.313e-15
286.0,1.336e-14
286.5,6.022e-14
287.0,1.729e-13
287.5,6.669e-13
288.0,2.314e-12
288.5,6.961e-12
289.0,1.847e-11
289.5,5.564e-11
290.0,1.543e-10
290.5,3.143e-10
291.0,6.745e-10
291.5,1.936e-09
292.0,3.901e-09
292.5,5.483e-09
293.0,1.179e-08
293.5,2.878e-08
294.0,4.508e-08
294.5,6.179e-08
295.0,1.049e-07
295.5,1.759e-07
296.0,3.424e-07
296.5,4.837e-07
297.0,6.602e-07
297.5,1.799e-06
298.0,2.88e-06
298.5,2.935e-06
299.0,6.564e-06
299.5,1.122e-05
300.0,1.255e-05
300.5,1.854e-05
301.0,3.472e-05
301.5,5.719e-05
302.0,4.977e-05
302.5,0.0001004
303.0,0.0001889
303.5,0.0002468
304.0,0.0002404
304.5,0.0003952
305.0,0.0006889
305.5,0.0008637
306.0,0.0008661
306.5,0.001145
307.0,0.001941
307.5,0.002945
308.0,0.003178
308.5,0.004011
309.0,0.004067
309.5,0.005156
310.0,0.005428
310.5,0.008998
311.0,0.01173
311.5,0.01151
312.0,0.01249
312.5,0.01604
313.0,0.0179
313.5,0.01693
314.0,0.02258
314.5,0.02179
315.0,0.02907
315.5,0.02335
316.0,0.02183
316.5,0.03325
317.0,0.04124
317.5,0.04221
318.0,0.03428
318.5,0.04594
319.0,0.05665
319.5,0.04342
320.0,0.05199
320.5,0.07031
321.0,0.06713
321.5,0.06482
322.0,0.06413
322.5,0.05601
323.0,0.05857
323.5,0.07535
324.0,0.08866
324.5,0.08826
325.0,0.07436
325.5,0.09948
326.0,0.1231
326.5,0.1265
327.0,0.1249
327.5,0.1192
328.0,0.1027
328.5,0.1124
329.0,0.1391
329.5,0.1596
330.0,0.1597
330.5,0.1247
331.0,0.126
331.5,0.1305
332.0,0.1449
332.5,0.1452
333.0,0.1438
333.5,0.1276
334.0,0.1303
334.5,0.1539
335.0,0.1466
335.5,0.1718
336.0,0.1189
336.5,0.138
337.0,0.1122
337.5,0.1391
338.0,0.1384
338.5,0.1606
339.0,0.1593
339.5,0.1532
340.0,0.1793
340.5,0.162
341.0,0.1585
341.5,0.1459
342.0,0.1746
342.5,0.1635
343.0,0.1797
343.5,0.1691
344.0,0.1246
344.5,0.1262
345.0,0.1675
345.5,0.1713
346.0,0.1458
346.5,0.1653
347.0,0.1773
347.5,0.1434
348.0,0.1638
348.5,0.1639
349.0,0.1522
349.5,0.1508
350.0,0.1867
350.5,0.197
351.0,0.176
351.5,0.1708
352.0,0.1838
352.5,0.1436
353.0,0.1812
353.5,0.1939
354.0,0.2015
354.5,0.2044
355.0,0.2038
355.5,0.1843
356.0,0.193
356.5,0.1648
357.0,0.1362
357.5,0.1669
358.0,0.1323
358.5,0.1131
359.0,0.1583
359.5,0.2017
360.0,0.214
360.5,0.1711
361.0,0.1562
361.5,0.18
362.0,0.1559
362.5,0.216
363.0,0.1942
363.5,0.1791
364.0,0.2192
364.5,0.1875
365.0,0.191
365.5,0.24
366.0,0.2545
366.5,0.2393
367.0,0.2332
367.5,0.2422
368.0,0.2121
368.5,0.2142
369.0,0.2315
369.5,0.2469
370.0,0.2634
370.5,0.2046
371.0,0.2188
371.5,0.2739
372.0,0.1819
372.5,0.2182
373.0,0.2222
373.5,0.1447
374.0,0.2104
374.5,0.1744
375.0,0.1696
375.5,0.2533
376.0,0.2101
376.5,0.2179
377.0,0.2309
377.5,0.2703
378.0,0.2931
378.5,0.2772
379.0,0.2288
379.5,0.2091
380.0,0.2175
380.5,0.2637
381.0,0.2645
381.5,0.2099
382.0,0.1866
382.5,0.1592
383.0,0.1476
383.5,0.1422
384.0,0.157
384.5,0.2311
385.0,0.2294
385.5,0.2138
386.0,0.1833
386.5,0.2409
387.0,0.2003
387.5,0.2251
388.0,0.208
388.5,0.2058
389.0,0.2223
389.5,0.2694
390.0,0.2706
390.5,0.2492
391.0,0.2936
391.5,0.2996
392.0,0.2525
392.5,0.2262
393.0,0.126
393.5,0.09166
394.0,0.1866
394.5,0.2375
395.0,0.29
395.5,0.2947
396.0,0.2557
396.5,0.1496
397.0,0.1124
397.5,0.2287
398.0,0.3203
398.5,0.3313
399.0,0.3592
399.5,0.3582
400.0,0.3721
401.0,0.3753
402.0,0.3966
403.0,0.3773
404.0,0.3719
405.0,0.3723
406.0,0.3668
407.0,0.3615
408.0,0.3758
409.0,0.4027
410.0,0.3524
411.0,0.3822
412.0,0.4112
413.0,0.4013
414.0,0.4068
415.0,0.4084
416.0,0.4162
417.0,0.4064
418.0,0.3993
419.0,0.405
420.0,0.4036
421.0,0.4227
422.0,0.4022
423.0,0.3933
424.0,0.4162
425.0,0.4159
426.0,0.4059
427.0,0.3987
428.0,0.3887
429.0,0.3688
430.0,0.3231
431.0,0.3204
432.0,0.4142
433.0,0.4169
434.0,0.3874
435.0,0.4047
436.0,0.4568
437.0,0.4513
438.0,0.4114
439.0,0.4252
440.0,0.4392
441.0,0.4557
442.0,0.489
443.0,0.4762
444.0,0.4872
445.0,0.4767
446.0,0.4559
447.0,0.4936
448.0,0.5011
449.0,0.504
450.0,0.5186
451.0,0.5382
452.0,0.519
453.0,0.4886
454.0,0.5107
455.0,0.514
456.0,0.5266
457.0,0.5355
458.0,0.5169
459.0,0.5145
460.0,0.5158
461.0,0.5279
462.0,0.5326
463.0,0.529
464.0,0.5212
465.0,0.5155
466.0,0.5212
467.0,0.5115
468.0,0.5176
469.0,0.5204
470.0,0.5038
471.0,0.5034
472.0,0.5304
473.0,0.5236
474.0,0.5239
475.0,0.5278
476.0,0.5112
477.0,0.5121
478.0,0.5266
479.0,0.5239
480.0,0.5254
481.0,0.5359
482.0,0.5395
483.0,0.5339
484.0,0.5235
485.0,0.4994
486.0,0.4371
487.0,0.4587
488.0,0.5032
489.0,0.5046
490.0,0.5313
491.0,0.5225
492.0,0.4935
493.0,0.5098
494.0,0.5151
495.0,0.5196
496.0,0.5228
497.0,0.5309
498.0,0.506
499.0,0.5121
500.0,0.4968
501.0,0.4871
502.0,0.4793
503.0,0.4977
504.0,0.4821
505.0,0.5018
506.0,0.5179
507.0,0.493
508.0,0.4786
509.0,0.4928
510.0,0.4908
511.0,0.5046
512.0,0.5105
513.0,0.4833
514.0,0.4802
515.0,0.4755
516.0,0.4742
517.0,0.4215
518.0,0.4431
519.0,0.4647
520.0,0.4815
521.0,0.486
522.0,0.4861
523.0,0.4772
524.0,0.4937
525.0,0.4987
526.0,0.4761
527.0,0.4481
528.0,0.4734
529.0,0.4985
530.0,0.4911
531.0,0.4981
532.0,0.4808
533.0,0.4668
534.0,0.4808
535.0,0.4917
536.0,0.4965
537.0,0.4773
538.0,0.4859
539.0,0.4818
540.0,0.4617
541.0,0.4639
542.0,0.478
543.0,0.4736
544.0,0.4811
545.0,0.4797
546.0,0.4811
547.0,0.4816
548.0,0.4761
549.0,0.4778
550.0,0.4836
551.0,0.4778
552.0,0.4811
553.0,0.4724
554.0,0.4836
555.0,0.4844
556.0,0.4779
557.0,0.4628
558.0,0.4588
559.0,0.4498
560.0,0.4551
561.0,0.4605
562.0,0.4566
563.0,0.4684
564.0,0.4551
565.0,0.4507
566.0,0.4436
567.0,0.4514
568.0,0.4458
569.0,0.4322
570.0,0.4325
571.0,0.4306
572.0,0.4389
573.0,0.4432
574.0,0.4414
575.0,0.4324
576.0,0.4285
577.0,0.4335
578.0,0.4279
579.0,0.431
580.0,0.4414
581.0,0.4454
582.0,0.4553
583.0,0.4577
584.0,0.4625
585.0,0.4517
586.0,0.4425
587.0,0.4512
588.0,0.4365
589.0,0.3794
590.0,0.3973
591.0,0.4248
592.0,0.4169
593.0,0.4264
594.0,0.4221
595.0,0.4089
596.0,0.4311
597.0,0.4248
598.0,0.4256
599.0,0.4268
600.0,0.4289
601.0,0.4266
602.0,0.4239
603.0,0.4315
604.0,0.4389
605.0,0.437
606.0,0.4359
607.0,0.441
608.0,0.4368
609.0,0.4381
610.0,0.4357
611.0,0.4383
612.0,0.4375
613.0,0.4323
614.0,0.427
615.0,0.4368
616.0,0.4229
617.0,0.4224
618.0,0.439
619.0,0.4348
620.0,0.4375
621.0,0.4374
622.0,0.4319
623.0,0.4249
624.0,0.418
625.0,0.4171
626.0,0.4231
627.0,0.4264
628.0,0.3812
629.0,0.4104
630.0,0.4003
631.0,0.4152
632.0,0.4113
633.0,0.4262
634.0,0.424
635.0,0.4316
636.0,0.427
637.0,0.4348
638.0,0.4404
639.0,0.4361
640.0,0.4328
641.0,0.4331
642.0,0.4319
643.0,0.4378
644.0,0.4371
645.0,0.4374
646.0,0.4251
647.0,0.4153
648.0,0.4159
649.0,0.4072
650.0,0.4153
651.0,0.4344
652.0,0.4102
653.0,0.429
654.0,0.4247
655.0,0.4058
656.0,0.3618
657.0,0.3719
658.0,0.4188
659.0,0.4226
660.0,0.4248
661.0,0.428
662.0,0.4277
663.0,0.4197
664.0,0.4264
665.0,0.4281
666.0,0.429
667.0,0.4292
668.0,0.4302
669.0,0.4373
670.0,0.4357
671.0,0.4359
672.0,0.4324
673.0,0.4393
674.0,0.4379
675.0,0.4342
676.0,0.4375
677.0,0.4334
678.0,0.4348
679.0,0.428
680.0,0.4316
681.0,0.4289
682.0,0.4284
683.0,0.4276
684.0,0.4255
685.0,0.4294
686.0,0.4265
687.0,0.2131
688.0,0.2799
689.0,0.282
690.0,0.3069
691.0,0.3362
692.0,0.3594
693.0,0.3558
694.0,0.3543
695.0,0.378
696.0,0.3791
697.0,0.4127
698.0,0.4061
699.0,0.3892
700.0,0.3841
701.0,0.3774
702.0,0.3829
703.0,0.3842
704.0,0.4009
705.0,0.4014
706.0,0.4027
707.0,0.4037
708.0,0.4044
709.0,0.4079
710.0,0.4063
711.0,0.4068
712.0,0.407
713.0,0.4016
714.0,0.4035
715.0,0.3878
716.0,0.3873
717.0,0.31
718.0,0.2825
719.0,0.2568
720.0,0.2663
721.0,0.3087
722.0,0.3691
723.0,0.3357
724.0,0.2928
725.0,0.285
726.0,0.2991
727.0,0.3099
728.0,0.2831
729.0,0.3026
730.0,0.3183
731.0,0.3028
732.0,0.3334
733.0,0.3617
734.0,0.3731
735.0,0.3639
736.0,0.363
737.0,0.3645
738.0,0.3771
739.0,0.3698
740.0,0.3815
741.0,0.3789
742.0,0.3806
743.0,0.3907
744.0,0.3904
745.0,0.3911
746.0,0.3929
747.0,0.3939
748.0,0.3932
749.0,0.3888
750.0,0.3886
751.0,0.3847
752.0,0.3865
753.0,0.3885
754.0,0.3894
755.0,0.3871
756.0,0.3871
757.0,0.3876
758.0,0.3826
759.0,0.3704
760.0,0.01846
761.0,0.006567
762.0,0.1205
763.0,0.03711
764.0,0.07365
765.0,0.1202
766.0,0.1753
767.0,0.2544
768.0,0.324
769.0,0.3381
770.0,0.358
771.0,0.3647
772.0,0.3667
773.0,0.3696
774.0,0.368
775.0,0.3654
776.0,0.37
777.0,0.3651
778.0,0.3629
779.0,0.3632
780.0,0.3612
781.0,0.3617
782.0,0.364
783.0,0.3578
784.0,0.3596
785.0,0.3567
786.0,0.3603
787.0,0.3506
788.0,0.3447
789.0,0.3444
790.0,0.3307
791.0,0.3381
792.0,0.3363
793.0,0.3304
794.0,0.3407
795.0,0.3452
796.0,0.3282
797.0,0.3281
798.0,0.344
799.0,0.3406
800.0,0.3332
801.0,0.3306
802.0,0.3296
803.0,0.3263
804.0,0.3275
805.0,0.3283
806.0,0.3408
807.0,0.336
808.0,0.3366
809.0,0.3278
810.0,0.3236
811.0,0.3206
812.0,0.307
813.0,0.2988
814.0,0.2509
815.0,0.2502
816.0,0.2313
817.0,0.2364
818.0,0.2247
819.0,0.2615
820.0,0.2426
821.0,0.2989
822.0,0.2879
823.0,0.1731
824.0,0.2737
825.0,0.2938
826.0,0.2776
827.0,0.298
828.0,0.2381
829.0,0.2769
830.0,0.2722
831.0,0.2732
832.0,0.2622
833.0,0.2857
834.0,0.271
835.0,0.3085
836.0,0.288
837.0,0.3095
838.0,0.2962
839.0,0.3055
840.0,0.3131
841.0,0.3071
842.0,0.3102
843.0,0.3126
844.0,0.3069
845.0,0.3191
846.0,0.3181
847.0,0.3129
848.0,0.3099
849.0,0.301
850.0,0.2886
851.0,0.3043
852.0,0.3028
853.0,0.2923
854.0,0.2516
855.0,0.2776
856.0,0.3029
857.0,0.3104
858.0,0.3077
859.0,0.3086
860.0,0.3095
861.0,0.3077
862.0,0.3127
863.0,0.3201
864.0,0.3041
865.0,0.3016
866.0,0.2712
867.0,0.283
868.0,0.308
869.0,0.3017
870.0,0.3103
871.0,0.3061
872.0,0.3051
873.0,0.3045
874.0,0.3009
875.0,0.2947
876.0,0.2977
877.0,0.3008
878.0,0.3039
879.0,0.2992
880.0,0.2929
881.0,0.2879
882.0,0.2939
883.0,0.2954
884.0,0.2938
885.0,0.296
886.0,0.28
887.0,0.2847
888.0,0.288
889.0,0.2929
890.0,0.2883
891.0,0.2889
892.0,0.2777
893.0,0.2664
894.0,0.251
895.0,0.2298
896.0,0.2146
897.0,0.176
898.0,0.1961
899.0,0.1399
900.0,0.2062
901.0,0.1466
902.0,0.1844
903.0,0.1818
904.0,0.249
905.0,0.2378
906.0,0.2202
907.0,0.1653
908.0,0.1713
909.0,0.1908
910.0,0.1586
911.0,0.1767
912.0,0.1854
913.0,0.1604
914.0,0.1612
915.0,0.1738
916.0,0.1458
917.0,0.1949
918.0,0.1486
919.0,0.202
920.0,0.2117
921.0,0.2197
922.0,0.1889
923.0,0.2131
924.0,0.1915
925.0,0.1879
926.0,0.1887
927.0,0.2186
928.0,0.1392
929.0,0.1216
930.0,0.08709
931.0,0.08267
932.0,0.05132
933.0,0.03831
934.0,0.01451
935.0,0.04185
936.0,0.02166
937.0,0.02178
938.0,0.02832
939.0,0.07987
940.0,0.1024
941.0,0.0694
942.0,0.08439
943.0,0.04964
944.0,0.05824
945.0,0.0733
946.0,0.02968
947.0,0.07151
948.0,0.05181
949.0,0.1036
950.0,0.01864
951.0,0.103
952.0,0.04577
953.0,0.06542
954.0,0.08752
955.0,0.06696
956.0,0.07245
957.0,0.04533
958.0,0.1109
959.0,0.07873
960.0,0.08827
961.0,0.1065
962.0,0.1004
963.0,0.1223
964.0,0.1102
965.0,0.1217
966.0,0.1209
967.0,0.1194
968.0,0.1866
969.0,0.1908
970.0,0.1729
971.0,0.2097
972.0,0.198
973.0,0.1605
974.0,0.1514
975.0,0.161
976.0,0.1462
977.0,0.1803
978.0,0.1655
979.0,0.1766
980.0,0.1644
981.0,0.2088
982.0,0.1952
983.0,0.1851
984.0,0.2206
985.0,0.1942
986.0,0.228
987.0,0.2196
988.0,0.2195
989.0,0.2296
990.0,0.218
991.0,0.2299
992.0,0.2316
993.0,0.2225
994.0,0.232
995.0,0.2323
996.0,0.2306
997.0,0.2312
998.0,0.2299
999.0,0.2293
1000.0,0.2267
1001.0,0.2306
1002.0,0.2203
1003.0,0.2263
1004.0,0.2197
1005.0,0.2131
1006.0,0.2207
1007.0,0.2257
1008.0,0.2238
1009.0,0.2218
1010.0,0.2205
1011.0,0.2247
1012.0,0.222
1013.0,0.2244
1014.0,0.2228
1015.0,0.2212
1016.0,0.2201
1017.0,0.2205
1018.0,0.2202
1019.0,0.214
1020.0,0.2188
1021.0,0.2188
1022.0,0.2165
1023.0,0.2187
1024.0,0.2143
1025.0,0.2191
1026.0,0.2177
1027.0,0.2173
1028.0,0.2167
1029.0,0.214
1030.0,0.2161
1031.0,0.215
1032.0,0.2145
1033.0,0.2113
1034.0,0.2113
1035.0,0.212
1036.0,0.2129
1037.0,0.2095
1038.0,0.2104
1039.0,0.2101
1040.0,0.2093
1041.0,0.21
1042.0,0.2085
1043.0,0.2077
1044.0,0.2084
1045.0,0.2055
1046.0,0.2031
1047.0,0.2048
1048.0,0.2058
1049.0,0.2049
1050.0,0.2039
1051.0,0.2034
1052.0,0.2024
1053.0,0.2006
1054.0,0.2009
1055.0,0.2007
1056.0,0.1998
1057.0,0.1989
1058.0,0.1938
1059.0,0.1938
1060.0,0.1934
1061.0,0.193
1062.0,0.1938
1063.0,0.1917
1064.0,0.194
1065.0,0.192
1066.0,0.1887
1067.0,0.191
1068.0,0.1864
1069.0,0.181
1070.0,0.1867
1071.0,0.191
1072.0,0.1878
1073.0,0.1853
1074.0,0.1916
1075.0,0.1781
1076.0,0.1912
1077.0,0.1856
1078.0,0.1811
1079.0,0.1888
1080.0,0.1828
1081.0,0.175
1082.0,0.1811
1083.0,0.1826
1084.0,0.1738
1085.0,0.1836
1086.0,0.1624
1087.0,0.171
1088.0,0.1818
1089.0,0.1724
1090.0,0.1667
1091.0,0.1802
1092.0,0.1804
1093.0,0.1432
1094.0,0.1638
1095.0,0.1497
1096.0,0.1407
1097.0,0.1763
1098.0,0.1369
1099.0,0.1443
1100.0,0.1305
1101.0,0.1334
1102.0,0.1248
1103.0,0.1217
1104.0,0.1221
1105.0,0.1402
1106.0,0.09219
1107.0,0.1303
1108.0,0.1016
1109.0,0.1032
1110.0,0.1273
1111.0,0.07458
1112.0,0.103
1113.0,0.05446
1114.0,0.06134
1115.0,0.04999
1116.0,0.03428
1117.0,0.007975
1118.0,0.0386
1119.0,0.01479
1120.0,0.01798
1121.0,0.02605
1122.0,0.00774
1123.0,0.01642
1124.0,0.0138
1125.0,0.01909
1126.0,0.00374
1127.0,0.02182
1128.0,0.009586
1129.0,0.01048
1130.0,0.006299
1131.0,0.05164
1132.0,0.03842
1133.0,0.01894
1134.0,0.002808
1135.0,0.001187
1136.0,0.01407
1137.0,0.04855
1138.0,0.03317
1139.0,0.06212
1140.0,0.04699
1141.0,0.03169
1142.0,0.03867
1143.0,0.06055
1144.0,0.01582
1145.0,0.01824
1146.0,0.01962
1147.0,0.004111
1148.0,0.05161
1149.0,0.03775
1150.0,0.01815
1151.0,0.03292
1152.0,0.04467
1153.0,0.04693
1154.0,0.01801
1155.0,0.06464
1156.0,0.05556
1157.0,0.06787
1158.0,0.06692
1159.0,0.07497
1160.0,0.06182
1161.0,0.08358
1162.0,0.0832
1163.0,0.1264
1164.0,0.1034
1165.0,0.09256
1166.0,0.09609
1167.0,0.107
1168.0,0.1071
1169.0,0.1109
1170.0,0.125
1171.0,0.1217
1172.0,0.1269
1173.0,0.1248
1174.0,0.07942
1175.0,0.1246
1176.0,0.143
1177.0,0.1331
1178.0,0.09252
1179.0,0.1441
1180.0,0.1222
1181.0,0.1263
1182.0,0.07874
1183.0,0.1257
1184.0,0.1149
1185.0,0.1082
1186.0,0.1372
1187.0,0.1278
1188.0,0.07851
1189.0,0.1187
1190.0,0.1347
1191.0,0.1222
1192.0,0.1372
1193.0,0.1295
1194.0,0.1348
1195.0,0.1236
1196.0,0.1169
1197.0,0.1365
1198.0,0.1231
1199.0,0.09673
1200.0,0.1278
1201.0,0.1203
1202.0,0.1221
1203.0,0.1195
1204.0,0.1013
1205.0,0.1271
1206.0,0.1443
1207.0,0.1206
1208.0,0.1211
1209.0,0.124
1210.0,0.1311
1211.0,0.122
1212.0,0.1161
1213.0,0.1374
1214.0,0.1205
1215.0,0.1178
1216.0,0.1374
1217.0,0.1323
1218.0,0.1362
1219.0,0.1336
1220.0,0.1365
1221.0,0.1388
1222.0,0.1346
1223.0,0.1326
1224.0,0.1301
1225.0,0.1376
1226.0,0.1398
1227.0,0.1247
1228.0,0.1414
1229.0,0.1398
1230.0,0.1366
1231.0,0.1433
1232.0,0.1423
1233.0,0.1338
1234.0,0.144
1235.0,0.1425
1236.0,0.144
1237.0,0.1405
1238.0,0.1435
1239.0,0.1416
1240.0,0.1424
1241.0,0.1408
1242.0,0.1413
1243.0,0.1402
1244.0,0.1409
1245.0,0.1417
1246.0,0.1409
1247.0,0.1401
1248.0,0.1395
1249.0,0.1404
1250.0,0.1392
1251.0,0.1368
1252.0,0.1376
1253.0,0.1352
1254.0,0.1328
1255.0,0.1371
1256.0,0.1308
1257.0,0.1296
1258.0,0.134
1259.0,0.1253
1260.0,0.1264
1261.0,0.1147
1262.0,0.1089
1263.0,0.1089
1264.0,0.09527
1265.0,0.1083
1266.0,0.1011
1267.0,0.1051
1268.0,0.09617
1269.0,0.04108
1270.0,0.1038
1271.0,0.1149
1272.0,0.1158
1273.0,0.114
1274.0,0.1151
1275.0,0.1176
1276.0,0.1197
1277.0,0.1217
1278.0,0.1258
1279.0,0.1246
1280.0,0.1232
1281.0,0.1184
1282.0,0.1155
1283.0,0.1241
1284.0,0.1268
1285.0,0.1279
1286.0,0.1304
1287.0,0.1269
1288.0,0.1274
1289.0,0.1204
1290.0,0.1264
1291.0,0.1287
1292.0,0.1157
1293.0,0.125
1294.0,0.1239
1295.0,0.1215
1296.0,0.1128
1297.0,0.1045
1298.0,0.1174
1299.0,0.1256
1300.0,0.09828
1301.0,0.1027
1302.0,0.1172
1303.0,0.09777
1304.0,0.07626
1305.0,0.1144
1306.0,0.1136
1307.0,0.08055
1308.0,0.09919
1309.0,0.1115
1310.0,0.07835
1311.0,0.0934
1312.0,0.08989
1313.0,0.08639
1314.0,0.07474
1315.0,0.0722
1316.0,0.09053
1317.0,0.08472
1318.0,0.09519
1319.0,0.06592
1320.0,0.06551
1321.0,0.07932
1322.0,0.0785
1323.0,0.05236
1324.0,0.06501
1325.0,0.08829
1326.0,0.07158
1327.0,0.06705
1328.0,0.05546
1329.0,0.03598
1330.0,0.04985
1331.0,0.02428
1332.0,0.02669
1333.0,0.03822
1334.0,0.0363
1335.0,0.05157
1336.0,0.03733
1337.0,0.03215
1338.0,0.03438
1339.0,0.03501
1340.0,0.0358
1341.0,0.0308
1342.0,0.0329
1343.0,0.01613
1344.0,0.01026
1345.0,0.01434
1346.0,0.004367
1347.0,0.004008
1348.0,9.628e-05
1349.0,0.0004332
1350.0,0.0005258
1351.0,5.118e-05
1352.0,4.348e-06
1353.0,1.16e-07
1354.0,6.825e-07
1355.0,1.737e-09
1356.0,5.602e-08
1357.0,8.444e-08
1358.0,2.09e-09
1359.0,2.108e-10
1360.0,8.404e-10
1361.0,8.227e-13
1362.0,2.246e-15
1363.0,1.036e-09
1364.0,4.354e-10
1365.0,7.836e-16
1366.0,4.639e-09
1367.0,2.063e-09
1368.0,6.05e-18
1369.0,1.607e-10
1370.0,7.606e-11
1371.0,4.243e-12
1372.0,1.138e-09
1373.0,3.147e-08
1374.0,2.252e-07
1375.0,3.46e-07
1376.0,6.364e-07
1377.0,2.622e-07
1378.0,2.734e-06
1379.0,1.147e-07
1380.0,1.033e-07
1381.0,2.329e-09
1382.0,9.618e-10
1383.0,1.375e-11
1384.0,1.705e-10
1385.0,1.149e-09
1386.0,7.91e-10
1387.0,1.509e-07
1388.0,3.997e-09
1389.0,9.824e-07
1390.0,7.7e-07
1391.0,5.04e-07
1392.0,3.269e-08
1393.0,2.269e-07
1394.0,4.648e-08
1395.0,2.879e-10
1396.0,1.074e-12
1397.0,7.209e-08
1398.0,2.676e-06
1399.0,1.815e-06
1400.0,4.574e-13
1401.0,1.91e-12
1402.0,1.786e-05
1403.0,1.683e-05
1404.0,4.396e-06
1405.0,1.204e-10
1406.0,7.253e-06
1407.0,1.217e-06
1408.0,6.523e-06
1409.0,1.198e-06
1410.0,1.769e-06
1411.0,1.576e-05
1412.0,2.976e-05
1413.0,0.0006662
1414.0,1.559e-06
1415.0,5.782e-07
1416.0,0.002172
1417.0,0.0003999
1418.0,0.0003349
1419.0,4.638e-05
1420.0,0.0002012
1421.0,0.000275
1422.0,0.002833
1423.0,0.0005021
1424.0,0.001079
1425.0,0.001322
1426.0,0.002013
1427.0,0.004685
1428.0,7.967e-05
1429.0,0.002843
