interpolation:linear
wavelength,value
280.0,8.473000000000001e-20
280.5,2.308e-18
281.0,1.32e-19
281.5,4.972e-19
282.0,2.352e-18
282.5,6.817e-18
283.0,2.303e-17
283.5,3.818e-17
284.0,6.054e-16
284.5,1.71e-15
285.0,3.915e-15
285.5,2.528e-14
286.0,1.099e-13
286.5,5.489e-13
287.0,1.67e-12
287.5,6.804e-12
288.0,2.053e-11
288.5,8.211e-11
289.0,2.781e-10
289.5,1.055e-09
290.0,3.482e-09
290.5,8.175e-09
291.0,2.059e-08
291.5,7.166e-08
292.0,1.842e-07
292.5,2.872e-07
293.0,7.035e-07
293.5,2.057e-06
294.0,3.704e-06
294.5,4.768e-06
295.0,9.139e-06
295.5,2.129e-05
296.0,3.984e-05
296.5,5.403e-05
297.0,7.125e-05
297.5,0.0001836
298.0,0.0002795
298.5,0.0002737
299.0,0.0005874
299.5,0.0009283
300.0,0.0009938
300.5,0.001399
301.0,0.002415
301.5,0.003685
302.0,0.003083
302.5,0.005772
303.0,0.009807
303.5,0.01192
304.0,0.01093
304.5,0.0153
305.0,0.02125
305.5,0.02303
306.0,0.02183
306.5,0.02625
307.0,0.0361
307.5,0.04467
308.0,0.04664
308.5,0.0532
309.0,0.05106
309.5,0.05565
310.0,0.05464
310.5,0.08749
311.0,0.1077
311.5,0.1031
312.0,0.09895
312.5,0.1171
313.0,0.1252
313.5,0.1232
314.0,0.149
314.5,0.1264
315.0,0.1648
315.5,0.1408
316.0,0.1186
316.5,0.1651
317.0,0.2051
317.5,0.2153
318.0,0.1644
318.5,0.196
319.0,0.2279
319.5,0.1919
320.0,0.233
320.5,0.2797
321.0,0.24
321.5,0.2293
322.0,0.2542
322.5,0.2206
323.0,0.2141
323.5,0.2566
324.0,0.2982
324.5,0.3059
325.0,0.268
325.5,0.3374
326.0,0.4098
326.5,0.4046
327.0,0.4053
327.5,0.3939
328.0,0.3572
328.5,0.3671
329.0,0.4318
329.5,0.4874
330.0,0.4937
330.5,0.4005
331.0,0.4098
331.5,0.4123
332.0,0.4388
332.5,0.4312
333.0,0.4315
333.5,0.3947
334.0,0.405
334.5,0.4616
335.0,0.4306
335.5,0.5029
336.0,0.3479
336.5,0.4087
337.0,0.337
337.5,0.4198
338.0,0.4058
338.5,0.4682
339.0,0.4632
339.5,0.4455
340.0,0.5236
340.5,0.4714
341.0,0.4599
341.5,0.422
342.0,0.5042
342.5,0.4716
343.0,0.5187
343.5,0.4885
344.0,0.3608
344.5,0.3645
345.0,0.4821
345.5,0.492
346.0,0.418
346.5,0.4732
347.0,0.508
347.5,0.4107
348.0,0.468
348.5,0.4677
349.0,0.4337
349.5,0.4294
350.0,0.5309
350.5,0.56
351.0,0.5002
351.5,0.4863
352.0,0.5221
352.5,0.4073
353.0,0.5128
353.5,0.5483
354.0,0.5691
354.5,0.5771
355.0,0.5752
355.5,0.5195
356.0,0.5434
356.5,0.464
357.0,0.3834
357.5,0.4693
358.0,0.3719
358.5,0.3178
359.0,0.4445
359.5,0.5665
360.0,0.6004
360.5,0.4798
361.0,0.4373
361.5,0.5034
362.0,0.4352
362.5,0.6021
363.0,0.5406
363.5,0.4979
364.0,0.6088
364.5,0.5203
365.0,0.5299
365.5,0.665
366.0,0.7044
366.5,0.6617
367.0,0.6444
367.5,0.6687
368.0,0.5851
368.5,0.5903
369.0,0.6375
369.5,0.6794
370.0,0.7242
370.5,0.562
371.0,0.6004
371.5,0.7512
372.0,0.4985
372.5,0.5977
373.0,0.6079
373.5,0.3955
374.0,0.5746
374.5,0.4758
375.0,0.4625
375.5,0.6905
376.0,0.5724
376.5,0.5932
377.0,0.628
377.5,0.7346
378.0,0.7964
378.5,0.7527
379.0,0.6212
379.5,0.5675
380.0,0.59
380.5,0.7145
381.0,0.7159
381.5,0.5674
382.0,0.5038
382.5,0.4294
383.0,0.3975
383.5,0.3829
384.0,0.4223
384.5,0.6211
385.0,0.6159
385.5,0.5735
386.0,0.4912
386.5,0.6451
387.0,0.5361
387.5,0.6021
388.0,0.5559
388.5,0.5494
389.0,0.5931
389.5,0.7183
390.0,0.7208
390.5,0.6633
391.0,0.7808
391.5,0.7964
392.0,0.6707
392.5,0.6004
393.0,0.3341
393.5,0.2428
394.0,0.4941
394.5,0.6281
395.0,0.7665
395.5,0.7786
396.0,0.675
396.5,0.3945
397.0,0.2961
397.5,0.6021
398.0,0.8432
398.5,0.8716
399.0,0.9436
399.5,0.9405
400.0,0.9767
401.0,0.9927
402.0,1.047
403.0,0.9945
404.0,0.9791
405.0,0.9789
406.0,0.9627
407.0,0.947
408.0,0.984
409.0,1.053
410.0,0.92
411.0,0.9963
412.0,1.07
413.0,1.043
414.0,1.056
415.0,1.058
416.0,1.077
417.0,1.05
418.0,1.031
419.0,1.044
420.0,1.039
421.0,1.087
422.0,1.033
423.0,1.009
424.0,1.067
425.0,1.065
426.0,1.037
427.0,1.018
428.0,0.9912
429.0,0.9385
430.0,0.8211
431.0,0.814
432.0,1.051
433.0,1.056
434.0,0.9808
435.0,1.024
436.0,1.154
437.0,1.138
438.0,1.036
439.0,1.072
440.0,1.106
441.0,1.145
442.0,1.228
443.0,1.197
444.0,1.222
445.0,1.196
446.0,1.141
447.0,1.233
448.0,1.252
449.0,1.256
450.0,1.291
451.0,1.339
452.0,1.29
453.0,1.213
454.0,1.266
455.0,1.274
456.0,1.304
457.0,1.325
458.0,1.28
459.0,1.274
460.0,1.277
461.0,1.306
462.0,1.316
463.0,1.307
464.0,1.285
465.0,1.268
466.0,1.28
467.0,1.257
468.0,1.271
469.0,1.278
470.0,1.237
471.0,1.236
472.0,1.302
473.0,1.285
474.0,1.288
475.0,1.299
476.0,1.261
477.0,1.265
478.0,1.3
479.0,1.291
480.0,1.293
481.0,1.317
482.0,1.323
483.0,1.306
484.0,1.279
485.0,1.219
486.0,1.065
487.0,1.116
488.0,1.224
489.0,1.228
490.0,1.292
491.0,1.269
492.0,1.198
493.0,1.237
494.0,1.25
495.0,1.26
496.0,1.268
497.0,1.288
498.0,1.227
499.0,1.243
500.0,1.207
501.0,1.186
502.0,1.17
503.0,1.218
504.0,1.19
505.0,1.23
506.0,1.27
507.0,1.208
508.0,1.17
509.0,1.202
510.0,1.195
511.0,1.227
512.0,1.24
513.0,1.174
514.0,1.165
515.0,1.154
516.0,1.151
517.0,1.023
518.0,1.075
519.0,1.128
520.0,1.169
521.0,1.18
522.0,1.181
523.0,1.16
524.0,1.202
525.0,1.217
526.0,1.162
527.0,1.096
528.0,1.159
529.0,1.222
530.0,1.205
531.0,1.223
532.0,1.181
533.0,1.147
534.0,1.18
535.0,1.206
536.0,1.217
537.0,1.168
538.0,1.189
539.0,1.179
540.0,1.13
541.0,1.139
542.0,1.174
543.0,1.162
544.0,1.182
545.0,1.178
546.0,1.184
547.0,1.183
548.0,1.169
549.0,1.172
550.0,1.186
551.0,1.172
552.0,1.18
553.0,1.159
554.0,1.186
555.0,1.189
556.0,1.174
557.0,1.137
558.0,1.129
559.0,1.108
560.0,1.122
561.0,1.137
562.0,1.13
563.0,1.161
564.0,1.13
565.0,1.12
566.0,1.104
567.0,1.125
568.0,1.117
569.0,1.092
570.0,1.092
571.0,1.085
572.0,1.112
573.0,1.124
574.0,1.121
575.0,1.101
576.0,1.091
577.0,1.102
578.0,1.085
579.0,1.088
580.0,1.107
581.0,1.112
582.0,1.132
583.0,1.134
584.0,1.143
585.0,1.115
586.0,1.092
587.0,1.116
588.0,1.092
589.0,0.9733
590.0,1.017
591.0,1.073
592.0,1.062
593.0,1.075
594.0,1.068
595.0,1.044
596.0,1.081
597.0,1.07
598.0,1.066
599.0,1.066
600.0,1.067
601.0,1.057
602.0,1.05
603.0,1.067
604.0,1.084
605.0,1.078
606.0,1.073
607.0,1.083
608.0,1.071
609.0,1.072
610.0,1.064
611.0,1.07
612.0,1.066
613.0,1.052
614.0,1.038
615.0,1.06
616.0,1.025
617.0,1.022
618.0,1.062
619.0,1.051
620.0,1.057
621.0,1.059
622.0,1.047
623.0,1.031
624.0,1.013
625.0,1.011
626.0,1.026
627.0,1.038
628.0,0.9818
629.0,1.018
630.0,0.9949
631.0,1.013
632.0,1.0
633.0,1.029
634.0,1.018
635.0,1.033
636.0,1.019
637.0,1.035
638.0,1.044
639.0,1.032
640.0,1.021
641.0,1.02
642.0,1.015
643.0,1.028
644.0,1.025
645.0,1.027
646.0,1.004
647.0,0.9954
648.0,0.9968
649.0,0.9777
650.0,0.9782
651.0,1.02
652.0,0.982
653.0,1.006
654.0,0.9944
655.0,0.9597
656.0,0.8489
657.0,0.8716
658.0,0.9755
659.0,0.9819
660.0,0.9857
661.0,0.9926
662.0,0.9954
663.0,0.9754
664.0,0.9858
665.0,0.9857
666.0,0.986
667.0,0.9847
668.0,0.9846
669.0,0.9996
670.0,0.9951
671.0,0.9946
672.0,0.986
673.0,1.001
674.0,0.9967
675.0,0.9875
676.0,0.9941
677.0,0.984
678.0,0.9867
679.0,0.9706
680.0,0.9783
681.0,0.9718
682.0,0.9705
683.0,0.9686
684.0,0.9638
685.0,0.9719
686.0,0.9663
687.0,0.6946
688.0,0.7884
689.0,0.7904
690.0,0.8205
691.0,0.854
692.0,0.8776
693.0,0.8713
694.0,0.8641
695.0,0.8935
696.0,0.8947
697.0,0.9413
698.0,0.9269
699.0,0.91
700.0,0.8991
701.0,0.8916
702.0,0.8958
703.0,0.8974
704.0,0.923
705.0,0.9244
706.0,0.9223
707.0,0.9226
708.0,0.9247
709.0,0.9241
710.0,0.9249
711.0,0.923
712.0,0.9194
713.0,0.9109
714.0,0.9142
715.0,0.8873
716.0,0.8884
717.0,0.79
718.0,0.729
719.0,0.6699
720.0,0.7031
721.0,0.764
722.0,0.8608
723.0,0.8083
724.0,0.7361
725.0,0.727
726.0,0.7595
727.0,0.7659
728.0,0.726
729.0,0.7461
730.0,0.7893
731.0,0.7575
732.0,0.8028
733.0,0.8427
734.0,0.8608
735.0,0.844
736.0,0.8428
737.0,0.8463
738.0,0.8547
739.0,0.838
740.0,0.8584
741.0,0.849
742.0,0.8489
743.0,0.8703
744.0,0.8673
745.0,0.867
746.0,0.871
747.0,0.8728
748.0,0.871
749.0,0.861
750.0,0.8604
751.0,0.8517
752.0,0.8553
753.0,0.8596
754.0,0.8615
755.0,0.8566
756.0,0.8562
757.0,0.8575
758.0,0.8469
759.0,0.8324
760.0,0.1934
761.0,0.1142
762.0,0.4802
763.0,0.2733
764.0,0.381
765.0,0.4804
766.0,0.5637
767.0,0.6858
768.0,0.7716
769.0,0.7834
770.0,0.8051
771.0,0.8094
772.0,0.8104
773.0,0.8159
774.0,0.8118
775.0,0.8055
776.0,0.8153
777.0,0.8045
778.0,0.7997
779.0,0.8003
780.0,0.7958
781.0,0.7966
782.0,0.8015
783.0,0.7875
784.0,0.7912
785.0,0.7855
786.0,0.7943
787.0,0.7825
788.0,0.7738
789.0,0.7737
790.0,0.7562
791.0,0.7598
792.0,0.7538
793.0,0.742
794.0,0.7515
795.0,0.765
796.0,0.7456
797.0,0.7466
798.0,0.7645
799.0,0.7604
800.0,0.7482
801.0,0.7467
802.0,0.7445
803.0,0.7394
804.0,0.7399
805.0,0.7364
806.0,0.7552
807.0,0.7465
808.0,0.747
809.0,0.7344
810.0,0.7295
811.0,0.7324
812.0,0.7142
813.0,0.7012
814.0,0.6266
815.0,0.6224
816.0,0.5807
817.0,0.5901
818.0,0.5702
819.0,0.629
820.0,0.5957
821.0,0.6848
822.0,0.6671
823.0,0.4723
824.0,0.6517
825.0,0.6734
826.0,0.6514
827.0,0.6837
828.0,0.5901
829.0,0.6467
830.0,0.6393
831.0,0.6412
832.0,0.6234
833.0,0.6579
834.0,0.6381
835.0,0.6936
836.0,0.6685
837.0,0.6952
838.0,0.6756
839.0,0.6843
840.0,0.6987
841.0,0.6897
842.0,0.6898
843.0,0.6881
844.0,0.6793
845.0,0.7011
846.0,0.6979
847.0,0.6845
848.0,0.6808
849.0,0.6615
850.0,0.6337
851.0,0.6715
852.0,0.6665
853.0,0.6411
854.0,0.5539
855.0,0.608
856.0,0.6647
857.0,0.6791
858.0,0.6743
859.0,0.6746
860.0,0.6756
861.0,0.672
862.0,0.6825
863.0,0.6986
864.0,0.6636
865.0,0.6578
866.0,0.5914
867.0,0.6172
868.0,0.6716
869.0,0.6576
870.0,0.6764
871.0,0.6672
872.0,0.6648
873.0,0.6634
874.0,0.6555
875.0,0.6423
876.0,0.649
877.0,0.6555
878.0,0.6627
879.0,0.6525
880.0,0.6385
881.0,0.6292
882.0,0.6429
883.0,0.6447
884.0,0.6418
885.0,0.6467
886.0,0.6173
887.0,0.6231
888.0,0.6328
889.0,0.6391
890.0,0.6348
891.0,0.6332
892.0,0.6162
893.0,0.5986
894.0,0.5808
895.0,0.5529
896.0,0.5226
897.0,0.4545
898.0,0.4928
899.0,0.3817
900.0,0.5012
901.0,0.3998
902.0,0.4601
903.0,0.4676
904.0,0.5764
905.0,0.5584
906.0,0.524
907.0,0.434
908.0,0.4415
909.0,0.4742
910.0,0.4265
911.0,0.4503
912.0,0.4691
913.0,0.4331
914.0,0.4282
915.0,0.4635
916.0,0.3945
917.0,0.4929
918.0,0.4047
919.0,0.5
920.0,0.5015
921.0,0.5207
922.0,0.4706
923.0,0.5027
924.0,0.4826
925.0,0.4723
926.0,0.4774
927.0,0.5296
928.0,0.4023
929.0,0.3709
930.0,0.2974
931.0,0.2808
932.0,0.2081
933.0,0.1724
934.0,0.1014
935.0,0.1737
936.0,0.1127
937.0,0.1149
938.0,0.1395
939.0,0.2721
940.0,0.3232
941.0,0.2495
942.0,0.2853
943.0,0.192
944.0,0.1983
945.0,0.2563
946.0,0.1363
947.0,0.2589
948.0,0.1912
949.0,0.3408
950.0,0.1039
951.0,0.3345
952.0,0.1875
953.0,0.237
954.0,0.285
955.0,0.2391
956.0,0.2294
957.0,0.1886
958.0,0.317
959.0,0.2579
960.0,0.2889
961.0,0.3197
962.0,0.3031
963.0,0.3453
964.0,0.3177
965.0,0.3436
966.0,0.3446
967.0,0.3435
968.0,0.4467
969.0,0.4677
970.0,0.4314
971.0,0.4878
972.0,0.4678
973.0,0.4133
974.0,0.3932
975.0,0.4057
976.0,0.3885
977.0,0.4358
978.0,0.4166
979.0,0.4344
980.0,0.4097
981.0,0.4847
982.0,0.4656
983.0,0.4483
984.0,0.497
985.0,0.4638
986.0,0.5042
987.0,0.496
988.0,0.495
989.0,0.5018
990.0,0.492
991.0,0.5035
992.0,0.5062
993.0,0.4965
994.0,0.5059
995.0,0.5051
996.0,0.5031
997.0,0.5037
998.0,0.5014
999.0,0.4995
1000.0,0.4963
1001.0,0.5021
1002.0,0.4898
1003.0,0.4933
1004.0,0.4817
1005.0,0.4635
1006.0,0.4819
1007.0,0.4919
1008.0,0.4895
1009.0,0.4872
1010.0,0.4853
1011.0,0.4894
1012.0,0.4854
1013.0,0.4881
1014.0,0.4847
1015.0,0.4816
1016.0,0.4794
1017.0,0.4807
1018.0,0.4787
1019.0,0.469
1020.0,0.4763
1021.0,0.4755
1022.0,0.472
1023.0,0.4771
1024.0,0.4714
1025.0,0.4765
1026.0,0.4747
1027.0,0.4735
1028.0,0.4726
1029.0,0.467
1030.0,0.47
1031.0,0.4682
1032.0,0.4668
1033.0,0.4598
1034.0,0.4598
1035.0,0.4612
1036.0,0.4637
1037.0,0.4561
1038.0,0.4582
1039.0,0.4579
1040.0,0.4561
1041.0,0.458
1042.0,0.4548
1043.0,0.4534
1044.0,0.455
1045.0,0.4488
1046.0,0.4439
1047.0,0.448
1048.0,0.4505
1049.0,0.4489
1050.0,0.4469
1051.0,0.4463
1052.0,0.4445
1053.0,0.4411
1054.0,0.4421
1055.0,0.4424
1056.0,0.441
1057.0,0.4397
1058.0,0.4289
1059.0,0.4295
1060.0,0.4289
1061.0,0.4284
1062.0,0.4308
1063.0,0.4266
1064.0,0.4316
1065.0,0.4287
1066.0,0.4201
1067.0,0.4256
1068.0,0.4164
1069.0,0.4034
1070.0,0.4173
1071.0,0.4233
1072.0,0.4188
1073.0,0.4126
1074.0,0.4227
1075.0,0.4032
1076.0,0.4225
1077.0,0.4158
1078.0,0.4083
1079.0,0.4155
1080.0,0.4094
1081.0,0.3971
1082.0,0.4021
1083.0,0.403
1084.0,0.3965
1085.0,0.4102
1086.0,0.3768
1087.0,0.3871
1088.0,0.4028
1089.0,0.392
1090.0,0.3844
1091.0,0.4019
1092.0,0.4006
1093.0,0.3443
1094.0,0.3671
1095.0,0.358
1096.0,0.3442
1097.0,0.3912
1098.0,0.3393
1099.0,0.3532
1100.0,0.3304
1101.0,0.3339
1102.0,0.3202
1103.0,0.318
1104.0,0.3183
1105.0,0.3455
1106.0,0.2722
1107.0,0.3297
1108.0,0.2843
1109.0,0.2838
1110.0,0.3274
1111.0,0.2285
1112.0,0.2813
1113.0,0.1858
1114.0,0.2069
1115.0,0.1717
1116.0,0.1412
1117.0,0.05654
1118.0,0.1521
1119.0,0.07914
1120.0,0.09975
1121.0,0.1301
1122.0,0.05793
1123.0,0.09001
1124.0,0.07602
1125.0,0.09829
1126.0,0.0374
1127.0,0.1106
1128.0,0.06959
1129.0,0.07331
1130.0,0.04973
1131.0,0.2017
1132.0,0.1597
1133.0,0.1055
1134.0,0.02964
1135.0,0.01098
1136.0,0.08956
1137.0,0.1994
1138.0,0.1414
1139.0,0.2028
1140.0,0.1726
1141.0,0.1344
1142.0,0.1529
1143.0,0.2137
1144.0,0.07877
1145.0,0.1016
1146.0,0.1097
1147.0,0.04193
1148.0,0.1851
1149.0,0.1503
1150.0,0.08447
1151.0,0.1404
1152.0,0.1699
1153.0,0.1633
1154.0,0.09919
1155.0,0.2117
1156.0,0.1922
1157.0,0.2133
1158.0,0.2109
1159.0,0.2254
1160.0,0.1951
1161.0,0.2356
1162.0,0.2372
1163.0,0.3121
1164.0,0.2707
1165.0,0.2583
1166.0,0.2545
1167.0,0.2756
1168.0,0.2793
1169.0,0.2848
1170.0,0.3071
1171.0,0.2998
1172.0,0.3038
1173.0,0.3064
1174.0,0.2257
1175.0,0.2983
1176.0,0.3245
1177.0,0.3137
1178.0,0.2409
1179.0,0.327
1180.0,0.2956
1181.0,0.3047
1182.0,0.216
1183.0,0.2992
1184.0,0.2823
1185.0,0.2741
1186.0,0.3193
1187.0,0.3059
1188.0,0.2202
1189.0,0.2854
1190.0,0.312
1191.0,0.2993
1192.0,0.316
1193.0,0.3039
1194.0,0.3125
1195.0,0.2977
1196.0,0.2881
1197.0,0.3115
1198.0,0.2867
1199.0,0.2487
1200.0,0.3003
1201.0,0.2913
1202.0,0.2886
1203.0,0.2863
1204.0,0.2531
1205.0,0.2939
1206.0,0.3219
1207.0,0.2883
1208.0,0.2824
1209.0,0.2878
1210.0,0.2987
1211.0,0.2863
1212.0,0.285
1213.0,0.3124
1214.0,0.2908
1215.0,0.2858
1216.0,0.3113
1217.0,0.304
1218.0,0.3088
1219.0,0.3055
1220.0,0.309
1221.0,0.3116
1222.0,0.304
1223.0,0.3016
1224.0,0.3004
1225.0,0.3096
1226.0,0.3111
1227.0,0.2894
1228.0,0.3121
1229.0,0.3111
1230.0,0.3063
1231.0,0.3134
1232.0,0.3116
1233.0,0.3029
1234.0,0.3127
1235.0,0.311
1236.0,0.3131
1237.0,0.3095
1238.0,0.312
1239.0,0.308
1240.0,0.3091
1241.0,0.3081
1242.0,0.307
1243.0,0.3045
1244.0,0.3068
1245.0,0.308
1246.0,0.3062
1247.0,0.3052
1248.0,0.3052
1249.0,0.3059
1250.0,0.3042
1251.0,0.3006
1252.0,0.3003
1253.0,0.2985
1254.0,0.2961
1255.0,0.3001
1256.0,0.293
1257.0,0.2916
1258.0,0.2961
1259.0,0.2873
1260.0,0.2886
1261.0,0.2749
1262.0,0.2679
1263.0,0.2685
1264.0,0.2509
1265.0,0.2667
1266.0,0.2585
1267.0,0.2618
1268.0,0.2502
1269.0,0.1689
1270.0,0.2613
1271.0,0.2736
1272.0,0.2742
1273.0,0.2716
1274.0,0.2721
1275.0,0.2756
1276.0,0.2778
1277.0,0.2791
1278.0,0.2834
1279.0,0.2809
1280.0,0.2773
1281.0,0.2641
1282.0,0.2538
1283.0,0.2735
1284.0,0.2801
1285.0,0.2819
1286.0,0.2852
1287.0,0.2816
1288.0,0.2814
1289.0,0.274
1290.0,0.2788
1291.0,0.2824
1292.0,0.2682
1293.0,0.2776
1294.0,0.2758
1295.0,0.2752
1296.0,0.2646
1297.0,0.2518
1298.0,0.2681
1299.0,0.2777
1300.0,0.2402
1301.0,0.2465
1302.0,0.2671
1303.0,0.2364
1304.0,0.2065
1305.0,0.262
1306.0,0.2623
1307.0,0.2092
1308.0,0.236
1309.0,0.2607
1310.0,0.2055
1311.0,0.2274
1312.0,0.222
1313.0,0.2185
1314.0,0.1973
1315.0,0.1958
1316.0,0.2246
1317.0,0.2133
1318.0,0.2298
1319.0,0.1853
1320.0,0.1783
1321.0,0.2058
1322.0,0.2087
1323.0,0.1617
1324.0,0.1817
1325.0,0.2216
1326.0,0.1932
1327.0,0.185
1328.0,0.161
1329.0,0.1249
1330.0,0.1606
1331.0,0.1017
1332.0,0.1034
1333.0,0.1426
1334.0,0.1188
1335.0,0.1611
1336.0,0.1298
1337.0,0.1161
1338.0,0.1255
1339.0,0.1243
1340.0,0.1197
1341.0,0.1197
1342.0,0.1255
1343.0,0.09086
1344.0,0.0542
1345.0,0.07759
1346.0,0.04251
1347.0,0.0439
1348.0,0.003656
1349.0,0.0122
1350.0,0.01202
1351.0,0.00365
1352.0,0.001242
1353.0,8.317e-05
1354.0,0.0002421
1355.0,3.359e-06
1356.0,4.156e-05
1357.0,6.275e-05
1358.0,3.893e-06
1359.0,7.309e-07
1360.0,2.054e-06
1361.0,5.435e-09
1362.0,2.193e-11
1363.0,3.075e-06
1364.0,1.327e-06
1365.0,1.213e-11
1366.0,1.207e-05
1367.0,4.693e-06
1368.0,2.329e-13
1369.0,5.1e-07
1370.0,2.973e-07
1371.0,2.103e-08
1372.0,2.59e-06
1373.0,3.951e-05
1374.0,0.0001523
1375.0,0.0002759
1376.0,0.0002159
1377.0,0.0001034
1378.0,0.0009192
1379.0,4.396e-05
1380.0,7.053e-05
1381.0,2.096e-06
1382.0,2.448e-06
1383.0,4.364e-08
1384.0,6.15e-07
1385.0,1.928e-06
1386.0,2.443e-06
1387.0,0.0001747
1388.0,3.58e-06
1389.0,0.0004864
1390.0,0.000418
1391.0,0.0002922
1392.0,2.055e-05
1393.0,9.804e-05
1394.0,6.768e-05
1395.0,6.326e-07
1396.0,6.995e-09
1397.0,4.219e-05
1398.0,0.001049
1399.0,0.0006654
1400.0,3.766e-09
1401.0,1.16e-08
1402.0,0.001453
1403.0,0.001907
1404.0,0.0005932
1405.0,3.56e-07
1406.0,0.001659
1407.0,0.0001415
1408.0,0.001342
1409.0,0.000517
1410.0,0.0003835
1411.0,0.001664
1412.0,0.002104
1413.0,0.01771
1414.0,0.000298
1415.0,0.0001531
1416.0,0.02624
1417.0,0.008916
1418.0,0.01023
1419.0,0.001637
1420.0,0.006301
1421.0,0.006868
1422.0,0.03397
1423.0,0.00685
1424.0,0.0126
1425.0,0.01888
1426.0,0.02055
1427.0,0.03576
1428.0,0.003497
1429.0,0.02763
1430.0,0.04491
1431.0,0.04879
1432.0,0.00278
1433.0,0.0318
1434.0,0.01656
1435.0,0.01786
1436.0,0.03239
1437.0,0.02483
1438.0,0.01106
1439.0,0.04314
1440.0,0.03242
1441.0,0.02568
1442.0,0.02829
1443.0,0.03405
1444.0,0.04652
1445.0,0.03758
1446.0,0.01727
1447.0,0.02716
1448.0,0.08351
1449.0,0.07366
1450.0,0.0201
1451.0,0.008362
1452.0,0.04544
1453.0,0.059
1454.0,0.09735
1455.0,0.04736
1456.0,0.06426
1457.0,0.08389
