interpolation:linear
wavelength,value
280.0,2.9939999999999995e-22
280.5,9.837e-21
281.0,5.272e-20
281.5,4.09e-19
282.0,6.738e-19
282.5,1.672e-18
283.0,5.287e-18
283.5,8.607e-18
284.0,1.417e-16
284.5,4.131e-16
285.0,6.83e-16
285.5,3.409e-15
286.0,1.375e-14
286.5,6.191e-14
287.0,1.776e-13
287.5,6.848e-13
288.0,2.361e-12
288.5,7.12e-12
289.0,1.892e-11
289.5,5.706e-11
290.0,1.583e-10
290.5,3.225e-10
291.0,6.921e-10
291.5,1.987e-09
292.0,4.019e-09
292.5,5.652e-09
293.0,1.215e-08
293.5,2.968e-08
294.0,4.65e-08
294.5,6.371e-08
295.0,1.081e-07
295.5,1.828e-07
296.0,3.565e-07
296.5,5.044e-07
297.0,6.898e-07
297.5,1.885e-06
298.0,3.027e-06
298.5,3.094e-06
299.0,6.941e-06
299.5,1.194e-05
300.0,1.342e-05
300.5,1.991e-05
301.0,3.762e-05
301.5,6.254e-05
302.0,5.47e-05
302.5,0.0001104
303.0,0.0002079
303.5,0.0002717
304.0,0.0002645
304.5,0.0004341
305.0,0.0007546
305.5,0.0009442
306.0,0.000946
306.5,0.001249
307.0,0.002111
307.5,0.00319
308.0,0.003441
308.5,0.004335
309.0,0.004419
309.5,0.005571
310.0,0.005851
310.5,0.009687
311.0,0.01261
311.5,0.01236
312.0,0.01335
312.5,0.0171
313.0,0.01905
313.5,0.01805
314.0,0.02398
314.5,0.02304
315.0,0.03072
315.5,0.02472
316.0,0.02304
316.5,0.03498
317.0,0.04338
317.5,0.04444
318.0,0.03601
318.5,0.04807
319.0,0.05916
319.5,0.04549
320.0,0.0545
320.5,0.0734
321.0,0.06981
321.5,0.06739
322.0,0.06694
322.5,0.05846
323.0,0.06097
323.5,0.07821
324.0,0.09198
324.5,0.09167
325.0,0.07738
325.5,0.1033
326.0,0.1277
326.5,0.131
327.0,0.1294
327.5,0.1237
328.0,0.1067
328.5,0.1166
329.0,0.1439
329.5,0.165
330.0,0.1652
330.5,0.1292
331.0,0.1306
331.5,0.1351
332.0,0.1498
332.5,0.15
333.0,0.1486
333.5,0.132
334.0,0.1349
334.5,0.1591
335.0,0.1514
335.5,0.1774
336.0,0.1228
336.5,0.1426
337.0,0.116
337.5,0.1438
338.0,0.143
338.5,0.1659
339.0,0.1644
339.5,0.1581
340.0,0.1851
340.5,0.1673
341.0,0.1637
341.5,0.1506
342.0,0.1802
342.5,0.1688
343.0,0.1855
343.5,0.1746
344.0,0.1287
344.5,0.1303
345.0,0.1729
345.5,0.1768
346.0,0.1505
346.5,0.1706
347.0,0.183
347.5,0.148
348.0,0.169
348.5,0.1692
349.0,0.1571
349.5,0.1556
350.0,0.1927
350.5,0.2033
351.0,0.1816
351.5,0.1763
352.0,0.1897
352.5,0.1482
353.0,0.187
353.5,0.2001
354.0,0.2079
354.5,0.2109
355.0,0.2102
355.5,0.1901
356.0,0.1991
356.5,0.1701
357.0,0.1406
357.5,0.1722
358.0,0.1365
358.5,0.1167
359.0,0.1633
359.5,0.2081
360.0,0.2208
360.5,0.1766
361.0,0.1611
361.5,0.1858
362.0,0.1608
362.5,0.2228
363.0,0.2004
363.5,0.1847
364.0,0.2261
364.5,0.1934
365.0,0.1971
365.5,0.2475
366.0,0.2625
366.5,0.2469
367.0,0.2406
367.5,0.2498
368.0,0.2188
368.5,0.2209
369.0,0.2387
369.5,0.2546
370.0,0.2717
370.5,0.211
371.0,0.2256
371.5,0.2825
372.0,0.1876
372.5,0.2251
373.0,0.2291
373.5,0.1492
374.0,0.2169
374.5,0.1798
375.0,0.1749
375.5,0.2612
376.0,0.2167
376.5,0.2247
377.0,0.2381
377.5,0.2787
378.0,0.3023
378.5,0.2858
379.0,0.236
379.5,0.2156
380.0,0.2243
380.5,0.2719
381.0,0.2727
381.5,0.2164
382.0,0.1924
382.5,0.1642
383.0,0.1521
383.5,0.1466
384.0,0.1619
384.5,0.2383
385.0,0.2365
385.5,0.2204
386.0,0.1889
386.5,0.2484
387.0,0.2065
387.5,0.2321
388.0,0.2144
388.5,0.2121
389.0,0.2291
389.5,0.2777
390.0,0.2789
390.5,0.2568
391.0,0.3026
391.5,0.3088
392.0,0.2602
392.5,0.2332
393.0,0.1299
393.5,0.09446
394.0,0.1923
394.5,0.2447
395.0,0.2988
395.5,0.3037
396.0,0.2635
396.5,0.1542
397.0,0.1158
397.5,0.2356
398.0,0.33
398.5,0.3413
399.0,0.3701
399.5,0.3691
400.0,0.3833
401.0,0.3867
402.0,0.4087
403.0,0.3888
404.0,0.3833
405.0,0.3836
406.0,0.378
407.0,0.3724
408.0,0.3872
409.0,0.4149
410.0,0.363
411.0,0.3937
412.0,0.4236
413.0,0.4134
414.0,0.419
415.0,0.4207
416.0,0.4287
417.0,0.4185
418.0,0.4112
419.0,0.4171
420.0,0.4156
421.0,0.4353
422.0,0.4141
423.0,0.4049
424.0,0.4285
425.0,0.4283
426.0,0.4179
427.0,0.4104
428.0,0.4001
429.0,0.3797
430.0,0.3326
431.0,0.3298
432.0,0.4264
433.0,0.4291
434.0,0.3987
435.0,0.4165
436.0,0.4701
437.0,0.4645
438.0,0.4234
439.0,0.4375
440.0,0.4519
441.0,0.4689
442.0,0.5032
443.0,0.49
444.0,0.5013
445.0,0.4905
446.0,0.469
447.0,0.5078
448.0,0.5155
449.0,0.5185
450.0,0.5335
451.0,0.5536
452.0,0.5338
453.0,0.5025
454.0,0.5253
455.0,0.5286
456.0,0.5415
457.0,0.5507
458.0,0.5316
459.0,0.5292
460.0,0.5305
461.0,0.5429
462.0,0.5477
463.0,0.544
464.0,0.5359
465.0,0.5301
466.0,0.5358
467.0,0.5259
468.0,0.5322
469.0,0.5351
470.0,0.518
471.0,0.5175
472.0,0.5454
473.0,0.5383
474.0,0.5387
475.0,0.5427
476.0,0.5257
477.0,0.5267
478.0,0.5415
479.0,0.5387
480.0,0.5402
481.0,0.551
482.0,0.5547
483.0,0.5489
484.0,0.5382
485.0,0.5133
486.0,0.4493
487.0,0.4714
488.0,0.5172
489.0,0.5186
490.0,0.546
491.0,0.537
492.0,0.5072
493.0,0.5239
494.0,0.5293
495.0,0.534
496.0,0.5373
497.0,0.5456
498.0,0.52
499.0,0.5263
500.0,0.5106
501.0,0.5007
502.0,0.4927
503.0,0.5117
504.0,0.4958
505.0,0.5159
506.0,0.5325
507.0,0.5069
508.0,0.492
509.0,0.5066
510.0,0.5045
511.0,0.5187
512.0,0.5246
513.0,0.4967
514.0,0.4935
515.0,0.4887
516.0,0.4874
517.0,0.4332
518.0,0.4554
519.0,0.4776
520.0,0.4949
521.0,0.4995
522.0,0.4996
523.0,0.4904
524.0,0.5075
525.0,0.5127
526.0,0.4895
527.0,0.4606
528.0,0.4867
529.0,0.5126
530.0,0.5049
531.0,0.5121
532.0,0.4944
533.0,0.4799
534.0,0.4944
535.0,0.5055
536.0,0.5105
537.0,0.4907
538.0,0.4996
539.0,0.4953
540.0,0.4747
541.0,0.477
542.0,0.4915
543.0,0.487
544.0,0.4947
545.0,0.4933
546.0,0.4948
547.0,0.4952
548.0,0.4896
549.0,0.4913
550.0,0.4972
551.0,0.4913
552.0,0.4947
553.0,0.4857
554.0,0.4973
555.0,0.4981
556.0,0.4915
557.0,0.4759
558.0,0.4719
559.0,0.4625
560.0,0.468
561.0,0.4736
562.0,0.4696
563.0,0.4818
564.0,0.4681
565.0,0.4637
566.0,0.4564
567.0,0.4645
568.0,0.4588
569.0,0.4449
570.0,0.4452
571.0,0.4432
572.0,0.4519
573.0,0.4563
574.0,0.4544
575.0,0.4452
576.0,0.4412
577.0,0.4464
578.0,0.4405
579.0,0.4437
580.0,0.4543
581.0,0.4583
582.0,0.4684
583.0,0.4708
584.0,0.4757
585.0,0.4646
586.0,0.4551
587.0,0.4641
588.0,0.4491
589.0,0.3907
590.0,0.4092
591.0,0.4373
592.0,0.4293
593.0,0.4389
594.0,0.4345
595.0,0.4211
596.0,0.4436
597.0,0.4373
598.0,0.438
599.0,0.4391
600.0,0.4413
601.0,0.4388
602.0,0.436
603.0,0.4438
604.0,0.4515
605.0,0.4495
606.0,0.4483
607.0,0.4534
608.0,0.4491
609.0,0.4504
610.0,0.4479
611.0,0.4506
612.0,0.4497
613.0,0.4444
614.0,0.4389
615.0,0.449
616.0,0.4346
617.0,0.4341
618.0,0.4511
619.0,0.4468
620.0,0.4496
621.0,0.4495
622.0,0.4438
623.0,0.4367
624.0,0.4296
625.0,0.4287
626.0,0.4348
627.0,0.4383
628.0,0.3927
629.0,0.4221
630.0,0.4118
631.0,0.4268
632.0,0.4228
633.0,0.438
634.0,0.4356
635.0,0.4434
636.0,0.4386
637.0,0.4466
638.0,0.4522
639.0,0.4478
640.0,0.4443
641.0,0.4446
642.0,0.4433
643.0,0.4494
644.0,0.4486
645.0,0.449
646.0,0.4365
647.0,0.4266
648.0,0.4272
649.0,0.4183
650.0,0.4263
651.0,0.4459
652.0,0.4213
653.0,0.4403
654.0,0.4359
655.0,0.4166
656.0,0.3714
657.0,0.3817
658.0,0.4297
659.0,0.4336
660.0,0.4358
661.0,0.4391
662.0,0.4388
663.0,0.4306
664.0,0.4374
665.0,0.439
666.0,0.4399
667.0,0.4402
668.0,0.4411
669.0,0.4483
670.0,0.4467
671.0,0.4469
672.0,0.4433
673.0,0.4503
674.0,0.4489
675.0,0.4451
676.0,0.4484
677.0,0.4442
678.0,0.4457
679.0,0.4388
680.0,0.4424
681.0,0.4396
682.0,0.4391
683.0,0.4383
684.0,0.4361
685.0,0.4401
686.0,0.4372
687.0,0.2216
688.0,0.2894
689.0,0.2915
690.0,0.3166
691.0,0.3462
692.0,0.3695
693.0,0.3658
694.0,0.3641
695.0,0.388
696.0,0.3891
697.0,0.4231
698.0,0.4163
699.0,0.3994
700.0,0.3942
701.0,0.3875
702.0,0.3929
703.0,0.3942
704.0,0.4111
705.0,0.4117
706.0,0.4129
707.0,0.4139
708.0,0.4146
709.0,0.4181
710.0,0.4165
711.0,0.417
712.0,0.4171
713.0,0.4116
714.0,0.4135
715.0,0.3976
716.0,0.3971
717.0,0.3191
718.0,0.2909
719.0,0.2644
720.0,0.2744
721.0,0.3173
722.0,0.3787
723.0,0.3448
724.0,0.3012
725.0,0.2933
726.0,0.3078
727.0,0.3186
728.0,0.2913
729.0,0.311
730.0,0.3273
731.0,0.3114
732.0,0.3425
733.0,0.3711
734.0,0.3827
735.0,0.3733
736.0,0.3724
737.0,0.374
738.0,0.3865
739.0,0.379
740.0,0.3909
741.0,0.3882
742.0,0.3899
743.0,0.4001
744.0,0.3998
745.0,0.4006
746.0,0.4024
747.0,0.4034
748.0,0.4027
749.0,0.3981
750.0,0.3979
751.0,0.394
752.0,0.3958
753.0,0.3978
754.0,0.3987
755.0,0.3964
756.0,0.3964
757.0,0.3969
758.0,0.3918
759.0,0.3795
760.0,0.02001
761.0,0.007215
762.0,0.1263
763.0,0.03978
764.0,0.07796
765.0,0.126
766.0,0.1822
767.0,0.2626
768.0,0.3327
769.0,0.3469
770.0,0.3668
771.0,0.3735
772.0,0.3755
773.0,0.3784
774.0,0.3768
775.0,0.3741
776.0,0.3788
777.0,0.3738
778.0,0.3715
779.0,0.3718
780.0,0.3698
781.0,0.3703
782.0,0.3727
783.0,0.3663
784.0,0.3682
785.0,0.3652
786.0,0.3689
787.0,0.3591
788.0,0.3532
789.0,0.3529
790.0,0.339
791.0,0.3464
792.0,0.3445
793.0,0.3385
794.0,0.3488
795.0,0.3535
796.0,0.3364
797.0,0.3363
798.0,0.3523
799.0,0.3489
800.0,0.3414
801.0,0.3388
802.0,0.3378
803.0,0.3344
804.0,0.3356
805.0,0.3364
806.0,0.349
807.0,0.3441
808.0,0.3447
809.0,0.3358
810.0,0.3316
811.0,0.3287
812.0,0.315
813.0,0.3066
814.0,0.258
815.0,0.2572
816.0,0.2379
817.0,0.243
818.0,0.2312
819.0,0.2686
820.0,0.2494
821.0,0.3065
822.0,0.2953
823.0,0.1785
824.0,0.281
825.0,0.3012
826.0,0.2848
827.0,0.3056
828.0,0.2448
829.0,0.2841
830.0,0.2792
831.0,0.2803
832.0,0.2691
833.0,0.2929
834.0,0.2781
835.0,0.316
836.0,0.2954
837.0,0.3171
838.0,0.3036
839.0,0.3129
840.0,0.3207
841.0,0.3146
842.0,0.3177
843.0,0.32
844.0,0.3142
845.0,0.3266
846.0,0.3256
847.0,0.3203
848.0,0.3172
849.0,0.3082
850.0,0.2954
851.0,0.3116
852.0,0.3099
853.0,0.2992
854.0,0.2576
855.0,0.2841
856.0,0.31
857.0,0.3177
858.0,0.315
859.0,0.3158
860.0,0.3167
861.0,0.3149
862.0,0.32
863.0,0.3276
864.0,0.3112
865.0,0.3086
866.0,0.2775
867.0,0.2896
868.0,0.3152
869.0,0.3087
870.0,0.3176
871.0,0.3132
872.0,0.3122
873.0,0.3116
874.0,0.3079
875.0,0.3016
876.0,0.3047
877.0,0.3078
878.0,0.311
879.0,0.3062
880.0,0.2997
881.0,0.2946
882.0,0.3008
883.0,0.3023
884.0,0.3007
885.0,0.3029
886.0,0.2867
887.0,0.2914
888.0,0.2948
889.0,0.2998
890.0,0.2952
891.0,0.2957
892.0,0.2844
893.0,0.2729
894.0,0.2574
895.0,0.236
896.0,0.2205
897.0,0.1812
898.0,0.2017
899.0,0.1443
900.0,0.2119
901.0,0.1512
902.0,0.1897
903.0,0.1871
904.0,0.2554
905.0,0.244
906.0,0.2261
907.0,0.1703
908.0,0.1763
909.0,0.1962
910.0,0.1634
911.0,0.1818
912.0,0.1907
913.0,0.1654
914.0,0.1661
915.0,0.1792
916.0,0.1503
917.0,0.2005
918.0,0.1533
919.0,0.2077
920.0,0.2172
921.0,0.2255
922.0,0.1942
923.0,0.2187
924.0,0.1971
925.0,0.1933
926.0,0.1942
927.0,0.2246
928.0,0.1439
929.0,0.126
930.0,0.09058
931.0,0.08602
932.0,0.05377
933.0,0.04028
934.0,0.01552
935.0,0.04389
936.0,0.02291
937.0,0.02303
938.0,0.02988
939.0,0.08313
940.0,0.1063
941.0,0.07236
942.0,0.08783
943.0,0.05192
944.0,0.0606
945.0,0.07634
946.0,0.03123
947.0,0.07456
948.0,0.05404
949.0,0.1076
950.0,0.01973
951.0,0.107
952.0,0.04793
953.0,0.06821
954.0,0.09092
955.0,0.06977
956.0,0.07504
957.0,0.04747
958.0,0.1146
959.0,0.08176
960.0,0.09166
961.0,0.1103
962.0,0.1039
963.0,0.1263
964.0,0.1139
965.0,0.1257
966.0,0.1249
967.0,0.1234
968.0,0.1916
969.0,0.1962
970.0,0.1778
971.0,0.2151
972.0,0.2032
973.0,0.1653
974.0,0.1559
975.0,0.1657
976.0,0.1507
977.0,0.1852
978.0,0.1702
979.0,0.1815
980.0,0.169
981.0,0.2142
982.0,0.2004
983.0,0.1901
984.0,0.2261
985.0,0.1994
986.0,0.2335
987.0,0.225
988.0,0.2249
989.0,0.235
990.0,0.2234
991.0,0.2353
992.0,0.237
993.0,0.2279
994.0,0.2374
995.0,0.2377
996.0,0.236
997.0,0.2366
998.0,0.2353
999.0,0.2346
1000.0,0.232
1001.0,0.236
1002.0,0.2256
1003.0,0.2316
1004.0,0.2249
1005.0,0.218
1006.0,0.2259
1007.0,0.231
1008.0,0.2291
1009.0,0.2271
1010.0,0.2257
1011.0,0.2299
1012.0,0.2272
1013.0,0.2296
1014.0,0.228
1015.0,0.2264
1016.0,0.2253
1017.0,0.2257
1018.0,0.2253
1019.0,0.219
1020.0,0.2239
1021.0,0.2238
1022.0,0.2216
1023.0,0.2238
1024.0,0.2194
1025.0,0.2242
1026.0,0.2228
1027.0,0.2224
1028.0,0.2218
1029.0,0.219
1030.0,0.2211
1031.0,0.22
1032.0,0.2195
1033.0,0.2162
1034.0,0.2162
1035.0,0.2169
1036.0,0.2179
1037.0,0.2144
1038.0,0.2153
1039.0,0.215
1040.0,0.2141
1041.0,0.2149
1042.0,0.2133
1043.0,0.2126
1044.0,0.2132
1045.0,0.2103
1046.0,0.2079
1047.0,0.2096
1048.0,0.2106
1049.0,0.2098
1050.0,0.2087
1051.0,0.2082
1052.0,0.2072
1053.0,0.2054
1054.0,0.2056
1055.0,0.2055
1056.0,0.2045
1057.0,0.2037
1058.0,0.1985
1059.0,0.1985
1060.0,0.198
1061.0,0.1977
1062.0,0.1984
1063.0,0.1963
1064.0,0.1987
1065.0,0.1967
1066.0,0.1933
1067.0,0.1956
1068.0,0.1909
1069.0,0.1854
1070.0,0.1913
1071.0,0.1956
1072.0,0.1923
1073.0,0.1897
1074.0,0.1961
1075.0,0.1825
1076.0,0.1958
1077.0,0.1902
1078.0,0.1855
1079.0,0.1933
1080.0,0.1873
1081.0,0.1793
1082.0,0.1855
1083.0,0.1869
1084.0,0.1782
1085.0,0.188
1086.0,0.1665
1087.0,0.1752
1088.0,0.1861
1089.0,0.1767
1090.0,0.171
1091.0,0.1846
1092.0,0.1848
1093.0,0.147
1094.0,0.1678
1095.0,0.1537
1096.0,0.1445
1097.0,0.1806
1098.0,0.1408
1099.0,0.1483
1100.0,0.1342
1101.0,0.1372
1102.0,0.1284
1103.0,0.1253
1104.0,0.1258
1105.0,0.1441
1106.0,0.09538
1107.0,0.1341
1108.0,0.1049
1109.0,0.1065
1110.0,0.1311
1111.0,0.07729
1112.0,0.1063
1113.0,0.05664
1114.0,0.06379
1115.0,0.05205
1116.0,0.03593
1117.0,0.008517
1118.0,0.04041
1119.0,0.01566
1120.0,0.01908
1121.0,0.02755
1122.0,0.008318
1123.0,0.01742
1124.0,0.01464
1125.0,0.02019
1126.0,0.004065
1127.0,0.02307
1128.0,0.01028
1129.0,0.01123
1130.0,0.006755
1131.0,0.05406
1132.0,0.04032
1133.0,0.0201
1134.0,0.003053
1135.0,0.001283
1136.0,0.01502
1137.0,0.05092
1138.0,0.03485
1139.0,0.06459
1140.0,0.04907
1141.0,0.03328
1142.0,0.0405
1143.0,0.06312
1144.0,0.0167
1145.0,0.01937
1146.0,0.02083
1147.0,0.004471
1148.0,0.05386
1149.0,0.03954
1150.0,0.01908
1151.0,0.03458
1152.0,0.04672
1153.0,0.04892
1154.0,0.01908
1155.0,0.06721
1156.0,0.05789
1157.0,0.0704
1158.0,0.06943
1159.0,0.07768
1160.0,0.0641
1161.0,0.08634
1162.0,0.08598
1163.0,0.1299
1164.0,0.1066
1165.0,0.09557
1166.0,0.09901
1167.0,0.1102
1168.0,0.1103
1169.0,0.1142
1170.0,0.1285
1171.0,0.1251
1172.0,0.1303
1173.0,0.1283
1174.0,0.08201
1175.0,0.1279
1176.0,0.1465
1177.0,0.1366
1178.0,0.09523
1179.0,0.1477
1180.0,0.1255
1181.0,0.1298
1182.0,0.08123
1183.0,0.1291
1184.0,0.1181
1185.0,0.1113
1186.0,0.1408
1187.0,0.1313
1188.0,0.08108
1189.0,0.1219
1190.0,0.1382
1191.0,0.1256
1192.0,0.1407
1193.0,0.1329
1194.0,0.1382
1195.0,0.1269
1196.0,0.1201
1197.0,0.1399
1198.0,0.1262
1199.0,0.09956
1200.0,0.1311
1201.0,0.1236
1202.0,0.1253
1203.0,0.1228
1204.0,0.1041
1205.0,0.1303
1206.0,0.1478
1207.0,0.1238
1208.0,0.1242
1209.0,0.1272
1210.0,0.1343
1211.0,0.1252
1212.0,0.1193
1213.0,0.1408
1214.0,0.1238
1215.0,0.121
1216.0,0.1408
1217.0,0.1357
1218.0,0.1396
1219.0,0.1369
1220.0,0.1399
1221.0,0.1422
1222.0,0.1379
1223.0,0.1359
1224.0,0.1335
1225.0,0.141
1226.0,0.1432
1227.0,0.1279
1228.0,0.1448
1229.0,0.1432
1230.0,0.14
1231.0,0.1467
1232.0,0.1457
1233.0,0.1371
1234.0,0.1473
1235.0,0.1458
1236.0,0.1473
1237.0,0.1438
1238.0,0.1469
1239.0,0.1449
1240.0,0.1457
1241.0,0.1441
1242.0,0.1446
1243.0,0.1434
1244.0,0.1442
1245.0,0.145
1246.0,0.1442
1247.0,0.1433
1248.0,0.1428
1249.0,0.1436
1250.0,0.1425
1251.0,0.1401
1252.0,0.1408
1253.0,0.1384
1254.0,0.136
1255.0,0.1403
1256.0,0.134
1257.0,0.1328
1258.0,0.1372
1259.0,0.1285
1260.0,0.1296
1261.0,0.1178
1262.0,0.112
1263.0,0.112
1264.0,0.09825
1265.0,0.1114
1266.0,0.1041
1267.0,0.1081
1268.0,0.09913
1269.0,0.04314
1270.0,0.1069
1271.0,0.118
1272.0,0.1189
1273.0,0.1171
1274.0,0.1182
1275.0,0.1207
1276.0,0.1228
1277.0,0.1248
1278.0,0.129
1279.0,0.1276
1280.0,0.1262
1281.0,0.1213
1282.0,0.1183
1283.0,0.1271
1284.0,0.1298
1285.0,0.1309
1286.0,0.1335
1287.0,0.13
1288.0,0.1304
1289.0,0.1234
1290.0,0.1294
1291.0,0.1317
1292.0,0.1186
1293.0,0.128
1294.0,0.1269
1295.0,0.1245
1296.0,0.1158
1297.0,0.1074
1298.0,0.1204
1299.0,0.1286
1300.0,0.101
1301.0,0.1054
1302.0,0.1201
1303.0,0.1004
1304.0,0.07864
1305.0,0.1173
1306.0,0.1165
1307.0,0.08294
1308.0,0.1018
1309.0,0.1144
1310.0,0.08072
1311.0,0.09596
1312.0,0.09238
1313.0,0.08889
1314.0,0.07703
1315.0,0.07448
1316.0,0.09307
1317.0,0.08716
1318.0,0.09778
1319.0,0.06808
1320.0,0.06759
1321.0,0.08169
1322.0,0.08092
1323.0,0.05428
1324.0,0.06712
1325.0,0.09083
1326.0,0.07382
1327.0,0.06921
1328.0,0.05736
1329.0,0.03747
1330.0,0.05175
1331.0,0.02546
1332.0,0.02791
1333.0,0.03993
1334.0,0.03769
1335.0,0.05351
1336.0,0.0389
1337.0,0.03351
1338.0,0.03587
1339.0,0.03649
1340.0,0.03723
1341.0,0.03223
1342.0,0.03439
1343.0,0.01711
1344.0,0.01085
1345.0,0.01521
1346.0,0.004738
1347.0,0.004372
1348.0,0.0001092
1349.0,0.0004884
1350.0,0.0005907
1351.0,5.951e-05
1352.0,5.231e-06
1353.0,1.363e-07
1354.0,8.142e-07
1355.0,1.885e-09
1356.0,6.575e-08
1357.0,9.918e-08
1358.0,2.281e-09
1359.0,2.152e-10
1360.0,8.887e-10
1361.0,8.247e-13
1362.0,2.248e-15
1363.0,1.064e-09
1364.0,4.499e-10
1365.0,7.84e-16
1366.0,4.829e-09
1367.0,2.203e-09
1368.0,6.053e-18
1369.0,1.661e-10
1370.0,7.734e-11
1371.0,4.279e-12
1372.0,1.221e-09
1373.0,3.592e-08
1374.0,2.669e-07
1375.0,4.084e-07
1376.0,7.608e-07
1377.0,3.129e-07
1378.0,3.296e-06
1379.0,1.366e-07
1380.0,1.223e-07
1381.0,2.72e-09
1382.0,1.022e-09
1383.0,1.438e-11
1384.0,1.749e-10
1385.0,1.285e-09
1386.0,8.215e-10
1387.0,1.742e-07
1388.0,4.678e-09
1389.0,1.179e-06
1390.0,9.255e-07
1391.0,6.028e-07
1392.0,3.88e-08
1393.0,2.713e-07
1394.0,5.27e-08
1395.0,3.145e-10
1396.0,1.078e-12
1397.0,8.584e-08
1398.0,3.237e-06
1399.0,2.193e-06
1400.0,4.582e-13
1401.0,1.921e-12
1402.0,2.08e-05
1403.0,1.986e-05
1404.0,5.231e-06
1405.0,1.275e-10
1406.0,8.756e-06
1407.0,1.423e-06
1408.0,7.853e-06
1409.0,1.45e-06
1410.0,2.111e-06
1411.0,1.855e-05
1412.0,3.456e-05
1413.0,0.0007538
1414.0,1.853e-06
1415.0,6.905e-07
1416.0,0.002376
1417.0,0.0004448
1418.0,0.0003805
1419.0,5.29e-05
1420.0,0.0002287
1421.0,0.0003068
1422.0,0.003101
1423.0,0.0005504
1424.0,0.001173
1425.0,0.001452
1426.0,0.00218
1427.0,0.00504
1428.0,9.102e-05
1429.0,0.003087
