interpolation:linear
wavelength,value
280.0,7.104e-21
280.5,2.162e-19
281.0,1.13e-18
281.5,5.058e-19
282.0,1.447e-18
282.5,3.773e-18
283.0,1.208e-17
283.5,1.969e-17
284.0,3.116e-16
284.5,8.887e-16
285.0,1.798e-15
285.5,9.291e-15
286.0,3.768e-14
286.5,1.687e-13
287.0,4.804e-13
287.5,1.821e-12
288.0,4.75e-12
288.5,1.669e-11
289.0,4.962e-11
289.5,1.637e-10
290.0,4.814e-10
290.5,1.025e-09
291.0,2.301e-09
291.5,7.104e-09
292.0,1.731e-08
292.5,2.704e-08
293.0,6.673e-08
293.5,1.981e-07
294.0,3.587e-07
294.5,4.732e-07
295.0,9.291e-07
295.5,2.54e-06
296.0,5.056e-06
296.5,7.308e-06
297.0,1.017e-05
297.5,2.849e-05
298.0,4.666e-05
298.5,4.841e-05
299.0,0.0001101
299.5,0.0001933
300.0,0.0002199
300.5,0.0003304
301.0,0.0006379
301.5,0.00109
302.0,0.0009721
302.5,0.001889
303.0,0.003366
303.5,0.004215
304.0,0.003942
304.5,0.005807
305.0,0.008635
305.5,0.009766
306.0,0.009407
306.5,0.01162
307.0,0.01691
307.5,0.02206
308.0,0.02324
308.5,0.02719
309.0,0.02659
309.5,0.03002
310.0,0.02997
310.5,0.04839
311.0,0.06041
311.5,0.05819
312.0,0.0575
312.5,0.06942
313.0,0.07499
313.5,0.07311
314.0,0.09053
314.5,0.07923
315.0,0.1039
315.5,0.08747
316.0,0.07558
316.5,0.1075
317.0,0.1335
317.5,0.1393
318.0,0.108
318.5,0.1324
319.0,0.1561
319.5,0.1286
320.0,0.1557
320.5,0.1923
321.0,0.1692
321.5,0.162
322.0,0.175
322.5,0.1521
323.0,0.1503
323.5,0.1832
324.0,0.2136
324.5,0.2176
325.0,0.1888
325.5,0.2412
326.0,0.2944
326.5,0.2934
327.0,0.293
327.5,0.2837
328.0,0.2542
328.5,0.2652
329.0,0.3155
329.5,0.3575
330.0,0.3613
330.5,0.2906
331.0,0.2965
331.5,0.3004
332.0,0.3228
332.5,0.3186
333.0,0.3182
333.5,0.2891
334.0,0.2964
334.5,0.3405
335.0,0.3192
335.5,0.3729
336.0,0.258
336.5,0.3026
337.0,0.2487
337.5,0.3096
338.0,0.3012
338.5,0.3477
339.0,0.3441
339.5,0.3311
340.0,0.3892
340.5,0.3507
341.0,0.3421
341.5,0.3141
342.0,0.3754
342.5,0.3513
343.0,0.3864
343.5,0.3639
344.0,0.269
344.5,0.2717
345.0,0.3596
345.5,0.3671
346.0,0.312
346.5,0.3534
347.0,0.3794
347.5,0.3068
348.0,0.3498
348.5,0.3497
349.0,0.3244
349.5,0.3213
350.0,0.3974
350.5,0.4193
351.0,0.3746
351.5,0.3642
352.0,0.3912
352.5,0.3053
353.0,0.3846
353.5,0.4113
354.0,0.427
354.5,0.4331
355.0,0.4317
355.5,0.39
356.0,0.4081
356.5,0.3485
357.0,0.288
357.5,0.3526
358.0,0.2795
358.5,0.2389
359.0,0.3342
359.5,0.4259
360.0,0.4516
360.5,0.361
361.0,0.3291
361.5,0.379
362.0,0.3278
362.5,0.4538
363.0,0.4077
363.5,0.3756
364.0,0.4594
364.5,0.3928
365.0,0.4001
365.5,0.5022
366.0,0.5322
366.5,0.5001
367.0,0.4871
367.5,0.5056
368.0,0.4425
368.5,0.4466
369.0,0.4824
369.5,0.5142
370.0,0.5483
370.5,0.4256
371.0,0.4549
371.5,0.5692
372.0,0.3778
372.5,0.4531
373.0,0.461
373.5,0.3
374.0,0.436
374.5,0.3611
375.0,0.3511
375.5,0.5242
376.0,0.4346
376.5,0.4505
377.0,0.477
377.5,0.5582
378.0,0.6052
378.5,0.5721
379.0,0.4722
379.5,0.4314
380.0,0.4485
380.5,0.5434
381.0,0.5446
381.5,0.4318
382.0,0.3836
382.5,0.3271
383.0,0.3028
383.5,0.2917
384.0,0.3219
384.5,0.4735
385.0,0.4696
385.5,0.4375
386.0,0.3747
386.5,0.4923
387.0,0.4092
387.5,0.4597
388.0,0.4245
388.5,0.4197
389.0,0.4531
389.5,0.5488
390.0,0.5509
390.5,0.5071
391.0,0.597
391.5,0.609
392.0,0.513
392.5,0.4594
393.0,0.2557
393.5,0.1859
394.0,0.3783
394.5,0.481
395.0,0.5871
395.5,0.5964
396.0,0.5172
396.5,0.3024
397.0,0.227
397.5,0.4617
398.0,0.6466
398.5,0.6684
399.0,0.7239
399.5,0.7217
400.0,0.7495
401.0,0.7604
402.0,0.8025
403.0,0.7626
404.0,0.751
405.0,0.7511
406.0,0.7391
407.0,0.7273
408.0,0.7559
409.0,0.8092
410.0,0.7072
411.0,0.7662
412.0,0.8232
413.0,0.8029
414.0,0.8129
415.0,0.8152
416.0,0.8297
417.0,0.8094
418.0,0.7946
419.0,0.8052
420.0,0.8018
421.0,0.8389
422.0,0.7975
423.0,0.7792
424.0,0.8242
425.0,0.8229
426.0,0.8017
427.0,0.7868
428.0,0.7666
429.0,0.7262
430.0,0.6356
431.0,0.6301
432.0,0.8137
433.0,0.8183
434.0,0.7599
435.0,0.7937
436.0,0.8944
437.0,0.8825
438.0,0.8037
439.0,0.8313
440.0,0.8579
441.0,0.8891
442.0,0.9536
443.0,0.9289
444.0,0.9492
445.0,0.9287
446.0,0.8864
447.0,0.9583
448.0,0.9733
449.0,0.9773
450.0,1.005
451.0,1.042
452.0,1.004
453.0,0.9444
454.0,0.9859
455.0,0.9921
456.0,1.016
457.0,1.033
458.0,0.9975
459.0,0.9924
460.0,0.9951
461.0,1.018
462.0,1.026
463.0,1.019
464.0,1.002
465.0,0.9895
466.0,0.9991
467.0,0.9809
468.0,0.9925
469.0,0.9977
470.0,0.9659
471.0,0.9647
472.0,1.017
473.0,1.003
474.0,1.005
475.0,1.013
476.0,0.9832
477.0,0.986
478.0,1.013
479.0,1.007
480.0,1.009
481.0,1.028
482.0,1.033
483.0,1.021
484.0,0.9999
485.0,0.9527
486.0,0.8328
487.0,0.8728
488.0,0.9576
489.0,0.9606
490.0,1.011
491.0,0.9932
492.0,0.9379
493.0,0.9686
494.0,0.9783
495.0,0.9866
496.0,0.9928
497.0,1.008
498.0,0.961
499.0,0.9733
500.0,0.945
501.0,0.9277
502.0,0.9147
503.0,0.952
504.0,0.9279
505.0,0.9611
506.0,0.9921
507.0,0.9441
508.0,0.9146
509.0,0.9402
510.0,0.9352
511.0,0.9603
512.0,0.9707
513.0,0.9188
514.0,0.9125
515.0,0.9034
516.0,0.9012
517.0,0.8008
518.0,0.8419
519.0,0.883
520.0,0.9152
521.0,0.9239
522.0,0.9247
523.0,0.9081
524.0,0.9406
525.0,0.9517
526.0,0.9091
527.0,0.8567
528.0,0.9061
529.0,0.9551
530.0,0.9414
531.0,0.9553
532.0,0.9225
533.0,0.8955
534.0,0.922
535.0,0.9421
536.0,0.9507
537.0,0.9132
538.0,0.9293
539.0,0.9215
540.0,0.8835
541.0,0.8894
542.0,0.9173
543.0,0.9076
544.0,0.9234
545.0,0.9205
546.0,0.9246
547.0,0.9241
548.0,0.9131
549.0,0.9158
550.0,0.9267
551.0,0.9155
552.0,0.9218
553.0,0.9053
554.0,0.927
555.0,0.9289
556.0,0.9168
557.0,0.8883
558.0,0.8816
559.0,0.8652
560.0,0.876
561.0,0.8873
562.0,0.8809
563.0,0.905
564.0,0.8804
565.0,0.8728
566.0,0.86
567.0,0.8763
568.0,0.8685
569.0,0.8479
570.0,0.8476
571.0,0.8425
572.0,0.8628
573.0,0.872
574.0,0.8692
575.0,0.853
576.0,0.8452
577.0,0.8544
578.0,0.8416
579.0,0.8449
580.0,0.861
581.0,0.8654
582.0,0.8817
583.0,0.8839
584.0,0.8916
585.0,0.8698
586.0,0.8519
587.0,0.8706
588.0,0.8495
589.0,0.7526
590.0,0.7871
591.0,0.8328
592.0,0.8223
593.0,0.8345
594.0,0.8287
595.0,0.8083
596.0,0.8401
597.0,0.831
598.0,0.8289
599.0,0.8296
600.0,0.8308
601.0,0.824
602.0,0.8184
603.0,0.832
604.0,0.8457
605.0,0.8414
606.0,0.8379
607.0,0.8462
608.0,0.8369
609.0,0.8383
610.0,0.8323
611.0,0.8367
612.0,0.8342
613.0,0.8237
614.0,0.8125
615.0,0.8301
616.0,0.8028
617.0,0.8012
618.0,0.832
619.0,0.8236
620.0,0.8288
621.0,0.8296
622.0,0.8199
623.0,0.8074
624.0,0.7936
625.0,0.7918
626.0,0.8035
627.0,0.8125
628.0,0.7587
629.0,0.7933
630.0,0.775
631.0,0.7925
632.0,0.783
633.0,0.8068
634.0,0.799
635.0,0.8114
636.0,0.8007
637.0,0.8138
638.0,0.8216
639.0,0.8124
640.0,0.8046
641.0,0.8041
642.0,0.8004
643.0,0.8112
644.0,0.8086
645.0,0.8099
646.0,0.791
647.0,0.7815
648.0,0.7823
649.0,0.7671
650.0,0.7709
651.0,0.8043
652.0,0.7708
653.0,0.7936
654.0,0.7848
655.0,0.7556
656.0,0.6696
657.0,0.6877
658.0,0.7707
659.0,0.7762
660.0,0.7794
661.0,0.7849
662.0,0.7865
663.0,0.771
664.0,0.7801
665.0,0.7807
666.0,0.7813
667.0,0.7806
668.0,0.781
669.0,0.7931
670.0,0.7896
671.0,0.7894
672.0,0.7827
673.0,0.7945
674.0,0.7915
675.0,0.7843
676.0,0.7897
677.0,0.7819
678.0,0.7841
679.0,0.7714
680.0,0.7776
681.0,0.7725
682.0,0.7715
683.0,0.77
684.0,0.7662
685.0,0.7727
686.0,0.7681
687.0,0.5095
688.0,0.5973
689.0,0.5995
690.0,0.6289
691.0,0.662
692.0,0.6862
693.0,0.6806
694.0,0.6749
695.0,0.7029
696.0,0.7039
697.0,0.747
698.0,0.7354
699.0,0.7178
700.0,0.7091
701.0,0.7019
702.0,0.7068
703.0,0.7081
704.0,0.7308
705.0,0.7319
706.0,0.7312
707.0,0.7318
708.0,0.7334
709.0,0.7344
710.0,0.7344
711.0,0.7334
712.0,0.7312
713.0,0.7238
714.0,0.7266
715.0,0.7036
716.0,0.704
717.0,0.6104
718.0,0.5606
719.0,0.5135
720.0,0.5379
721.0,0.5939
722.0,0.6796
723.0,0.6326
724.0,0.5699
725.0,0.5607
726.0,0.587
727.0,0.5954
728.0,0.5593
729.0,0.5803
730.0,0.614
731.0,0.5874
732.0,0.6285
733.0,0.6653
734.0,0.6811
735.0,0.667
736.0,0.6662
737.0,0.6688
738.0,0.6792
739.0,0.6658
740.0,0.6832
741.0,0.6764
742.0,0.677
743.0,0.6943
744.0,0.6923
745.0,0.6924
746.0,0.6956
747.0,0.6971
748.0,0.6957
749.0,0.6877
750.0,0.6873
751.0,0.6804
752.0,0.6833
753.0,0.6867
754.0,0.6883
755.0,0.6844
756.0,0.6841
757.0,0.6851
758.0,0.6766
759.0,0.6628
760.0,0.1087
761.0,0.05665
762.0,0.3371
763.0,0.167
764.0,0.2523
765.0,0.3371
766.0,0.415
767.0,0.5248
768.0,0.6066
769.0,0.6196
770.0,0.6409
771.0,0.6462
772.0,0.6476
773.0,0.6522
774.0,0.649
775.0,0.6441
776.0,0.6519
777.0,0.6433
778.0,0.6394
779.0,0.64
780.0,0.6364
781.0,0.637
782.0,0.641
783.0,0.6299
784.0,0.6329
785.0,0.6282
786.0,0.6351
787.0,0.6239
788.0,0.6161
789.0,0.6159
790.0,0.5994
791.0,0.6047
792.0,0.6002
793.0,0.5905
794.0,0.6007
795.0,0.6109
796.0,0.5919
797.0,0.5927
798.0,0.6101
799.0,0.6062
800.0,0.5956
801.0,0.5937
802.0,0.592
803.0,0.5875
804.0,0.5883
805.0,0.5865
806.0,0.6031
807.0,0.5958
808.0,0.5963
809.0,0.5851
810.0,0.5802
811.0,0.5809
812.0,0.5641
813.0,0.5523
814.0,0.4855
815.0,0.4826
816.0,0.4491
817.0,0.4574
818.0,0.4402
819.0,0.4924
820.0,0.4636
821.0,0.5424
822.0,0.5268
823.0,0.3575
824.0,0.5113
825.0,0.533
826.0,0.5126
827.0,0.5412
828.0,0.4583
829.0,0.5096
830.0,0.5028
831.0,0.5046
832.0,0.489
833.0,0.5206
834.0,0.5019
835.0,0.5519
836.0,0.5279
837.0,0.5534
838.0,0.536
839.0,0.5451
840.0,0.5571
841.0,0.5491
842.0,0.5504
843.0,0.5502
844.0,0.5425
845.0,0.5609
846.0,0.5585
847.0,0.5481
848.0,0.5447
849.0,0.5292
850.0,0.507
851.0,0.5367
852.0,0.533
853.0,0.5131
854.0,0.443
855.0,0.4868
856.0,0.5319
857.0,0.5438
858.0,0.5398
859.0,0.5403
860.0,0.5413
861.0,0.5383
862.0,0.5468
863.0,0.5597
864.0,0.5317
865.0,0.5271
866.0,0.4739
867.0,0.4946
868.0,0.5382
869.0,0.527
870.0,0.5421
871.0,0.5347
872.0,0.5328
873.0,0.5317
874.0,0.5254
875.0,0.5148
876.0,0.5201
877.0,0.5254
878.0,0.5311
879.0,0.5229
880.0,0.5117
881.0,0.504
882.0,0.5148
883.0,0.5165
884.0,0.5141
885.0,0.518
886.0,0.4935
887.0,0.4989
888.0,0.5061
889.0,0.5121
890.0,0.5076
891.0,0.5068
892.0,0.4919
893.0,0.4762
894.0,0.4589
895.0,0.4329
896.0,0.4075
897.0,0.349
898.0,0.3814
899.0,0.2889
900.0,0.3911
901.0,0.3028
902.0,0.357
903.0,0.36
904.0,0.4554
905.0,0.4394
906.0,0.411
907.0,0.3324
908.0,0.3392
909.0,0.3681
910.0,0.3242
911.0,0.3465
912.0,0.3625
913.0,0.329
914.0,0.3264
915.0,0.3539
916.0,0.2992
917.0,0.3812
918.0,0.3067
919.0,0.3886
920.0,0.3933
921.0,0.4092
922.0,0.3648
923.0,0.3953
924.0,0.3737
925.0,0.3656
926.0,0.3695
927.0,0.4147
928.0,0.3011
929.0,0.274
930.0,0.2138
931.0,0.2028
932.0,0.1444
933.0,0.1165
934.0,0.06211
935.0,0.12
936.0,0.07376
937.0,0.07462
938.0,0.09223
939.0,0.1965
940.0,0.2375
941.0,0.1777
942.0,0.2067
943.0,0.1347
944.0,0.143
945.0,0.1835
946.0,0.09165
947.0,0.1839
948.0,0.1348
949.0,0.2479
950.0,0.0662
951.0,0.2444
952.0,0.129
953.0,0.1681
954.0,0.2079
955.0,0.1702
956.0,0.1663
957.0,0.129
958.0,0.238
959.0,0.1871
960.0,0.2098
961.0,0.237
962.0,0.224
963.0,0.2596
964.0,0.2374
965.0,0.2588
966.0,0.2585
967.0,0.2573
968.0,0.3497
969.0,0.3648
970.0,0.3344
971.0,0.3849
972.0,0.3678
973.0,0.3181
974.0,0.3016
975.0,0.3139
976.0,0.2969
977.0,0.3402
978.0,0.3222
979.0,0.3382
980.0,0.3175
981.0,0.3828
982.0,0.3652
983.0,0.3502
984.0,0.3953
985.0,0.3639
986.0,0.4028
987.0,0.3943
988.0,0.3936
989.0,0.4019
990.0,0.3912
991.0,0.403
992.0,0.4054
993.0,0.3958
994.0,0.4054
995.0,0.4049
996.0,0.4031
997.0,0.4037
998.0,0.4018
999.0,0.4003
1000.0,0.3973
1001.0,0.4025
1002.0,0.3908
1003.0,0.3953
1004.0,0.3855
1005.0,0.3716
1006.0,0.386
1007.0,0.3942
1008.0,0.392
1009.0,0.3898
1010.0,0.388
1011.0,0.3923
1012.0,0.3887
1013.0,0.3913
1014.0,0.3886
1015.0,0.386
1016.0,0.3843
1017.0,0.3852
1018.0,0.3838
1019.0,0.3754
1020.0,0.3818
1021.0,0.3813
1022.0,0.3782
1023.0,0.3822
1024.0,0.377
1025.0,0.3821
1026.0,0.3804
1027.0,0.3795
1028.0,0.3787
1029.0,0.3742
1030.0,0.3768
1031.0,0.3753
1032.0,0.3742
1033.0,0.3686
1034.0,0.3686
1035.0,0.3698
1036.0,0.3716
1037.0,0.3656
1038.0,0.3672
1039.0,0.367
1040.0,0.3655
1041.0,0.3669
1042.0,0.3644
1043.0,0.3632
1044.0,0.3645
1045.0,0.3595
1046.0,0.3555
1047.0,0.3587
1048.0,0.3607
1049.0,0.3593
1050.0,0.3577
1051.0,0.3571
1052.0,0.3557
1053.0,0.3528
1054.0,0.3535
1055.0,0.3537
1056.0,0.3524
1057.0,0.3513
1058.0,0.3426
1059.0,0.343
1060.0,0.3424
1061.0,0.342
1062.0,0.3437
1063.0,0.3403
1064.0,0.3444
1065.0,0.3418
1066.0,0.3351
1067.0,0.3394
1068.0,0.3319
1069.0,0.3217
1070.0,0.3326
1071.0,0.338
1072.0,0.3339
1073.0,0.3291
1074.0,0.3379
1075.0,0.3203
1076.0,0.3376
1077.0,0.3311
1078.0,0.3247
1079.0,0.3323
1080.0,0.3261
1081.0,0.3153
1082.0,0.3209
1083.0,0.322
1084.0,0.3143
1085.0,0.3269
1086.0,0.2973
1087.0,0.3076
1088.0,0.3216
1089.0,0.3111
1090.0,0.3039
1091.0,0.3204
1092.0,0.3197
1093.0,0.2693
1094.0,0.2923
1095.0,0.2808
1096.0,0.2683
1097.0,0.3123
1098.0,0.2639
1099.0,0.2756
1100.0,0.2554
1101.0,0.2588
1102.0,0.2467
1103.0,0.244
1104.0,0.2443
1105.0,0.2691
1106.0,0.2028
1107.0,0.255
1108.0,0.2143
1109.0,0.2151
1110.0,0.2525
1111.0,0.1689
1112.0,0.2136
1113.0,0.1335
1114.0,0.1494
1115.0,0.1237
1116.0,0.09729
1117.0,0.03412
1118.0,0.1064
1119.0,0.05145
1120.0,0.06466
1121.0,0.08663
1122.0,0.0353
1123.0,0.05849
1124.0,0.04935
1125.0,0.06471
1126.0,0.02137
1127.0,0.0731
1128.0,0.04247
1129.0,0.04524
1130.0,0.0293
1131.0,0.1417
1132.0,0.1106
1133.0,0.06842
1134.0,0.01655
1135.0,0.006258
1136.0,0.05648
1137.0,0.1387
1138.0,0.09734
1139.0,0.1484
1140.0,0.1228
1141.0,0.09253
1142.0,0.1071
1143.0,0.1534
1144.0,0.05203
1145.0,0.06602
1146.0,0.07119
1147.0,0.02384
1148.0,0.1327
1149.0,0.105
1150.0,0.05613
1151.0,0.09657
1152.0,0.12
1153.0,0.1178
1154.0,0.06383
1155.0,0.1548
1156.0,0.1387
1157.0,0.1567
1158.0,0.155
1159.0,0.1679
1160.0,0.1427
1161.0,0.1774
1162.0,0.1782
1163.0,0.2431
1164.0,0.2077
1165.0,0.1951
1166.0,0.1943
1167.0,0.2121
1168.0,0.2142
1169.0,0.2196
1170.0,0.2393
1171.0,0.2333
1172.0,0.2379
1173.0,0.2388
1174.0,0.1691
1175.0,0.2336
1176.0,0.2575
1177.0,0.2467
1178.0,0.1842
1179.0,0.2596
1180.0,0.2309
1181.0,0.2384
1182.0,0.1634
1183.0,0.2349
1184.0,0.2198
1185.0,0.2118
1186.0,0.2521
1187.0,0.2398
1188.0,0.166
1189.0,0.2233
1190.0,0.2464
1191.0,0.2334
1192.0,0.2499
1193.0,0.2393
1194.0,0.2467
1195.0,0.233
1196.0,0.2242
1197.0,0.2471
1198.0,0.2258
1199.0,0.1913
1200.0,0.2362
1201.0,0.2276
1202.0,0.2265
1203.0,0.2245
1204.0,0.196
1205.0,0.2319
1206.0,0.2566
1207.0,0.2258
1208.0,0.2224
1209.0,0.2271
1210.0,0.2367
1211.0,0.2252
1212.0,0.2222
1213.0,0.248
1214.0,0.2276
1215.0,0.2233
1216.0,0.2472
1217.0,0.2406
1218.0,0.2452
1219.0,0.2421
1220.0,0.2454
1221.0,0.2479
1222.0,0.2415
1223.0,0.2392
1224.0,0.2376
1225.0,0.2464
1226.0,0.2481
1227.0,0.2286
1228.0,0.2494
1229.0,0.2481
1230.0,0.2438
1231.0,0.2509
1232.0,0.2494
1233.0,0.2406
1234.0,0.2508
1235.0,0.2492
1236.0,0.251
1237.0,0.2474
1238.0,0.2502
1239.0,0.2469
1240.0,0.2479
1241.0,0.2467
1242.0,0.2462
1243.0,0.2442
1244.0,0.2459
1245.0,0.247
1246.0,0.2455
1247.0,0.2446
1248.0,0.2444
1249.0,0.2451
1250.0,0.2436
1251.0,0.2405
1252.0,0.2406
1253.0,0.2386
1254.0,0.2361
1255.0,0.2403
1256.0,0.2334
1257.0,0.2321
1258.0,0.2366
1259.0,0.2278
1260.0,0.229
1261.0,0.2158
1262.0,0.2092
1263.0,0.2096
1264.0,0.1931
1265.0,0.2082
1266.0,0.2002
1267.0,0.2038
1268.0,0.1931
1269.0,0.1181
1270.0,0.203
1271.0,0.2151
1272.0,0.2159
1273.0,0.2135
1274.0,0.2143
1275.0,0.2174
1276.0,0.2196
1277.0,0.2211
1278.0,0.2255
1279.0,0.2235
1280.0,0.2206
1281.0,0.2106
1282.0,0.203
1283.0,0.2186
1284.0,0.2238
1285.0,0.2253
1286.0,0.2284
1287.0,0.2248
1288.0,0.2248
1289.0,0.2175
1290.0,0.2228
1291.0,0.2259
1292.0,0.2119
1293.0,0.2215
1294.0,0.2199
1295.0,0.2187
1296.0,0.2086
1297.0,0.1971
1298.0,0.2126
1299.0,0.2218
1300.0,0.1871
1301.0,0.193
1302.0,0.2119
1303.0,0.1847
1304.0,0.1569
1305.0,0.2075
1306.0,0.2075
1307.0,0.1605
1308.0,0.1851
1309.0,0.2058
1310.0,0.1574
1311.0,0.1773
1312.0,0.1724
1313.0,0.169
1314.0,0.151
1315.0,0.1489
1316.0,0.1744
1317.0,0.1651
1318.0,0.1797
1319.0,0.1396
1320.0,0.1355
1321.0,0.1581
1322.0,0.1595
1323.0,0.1193
1324.0,0.137
1325.0,0.1718
1326.0,0.147
1327.0,0.1401
1328.0,0.1205
1329.0,0.08977
1330.0,0.1173
1331.0,0.06982
1332.0,0.07243
1333.0,0.101
1334.0,0.08606
1335.0,0.1188
1336.0,0.09346
1337.0,0.08237
1338.0,0.08914
1339.0,0.08889
1340.0,0.08673
1341.0,0.08405
1342.0,0.08835
1343.0,0.05853
1344.0,0.03513
1345.0,0.05073
1346.0,0.02437
1347.0,0.02463
1348.0,0.001485
1349.0,0.005449
1350.0,0.005746
1351.0,0.001308
1352.0,0.0003288
1353.0,1.56e-05
1354.0,5.648e-05
1355.0,3.913e-07
1356.0,7.588e-06
1357.0,1.158e-05
1358.0,4.663e-07
1359.0,5.243e-08
1360.0,2.049e-07
1361.0,1.799e-10
1362.0,4.454e-13
1363.0,2.677e-07
1364.0,1.104e-07
1365.0,1.37e-13
1366.0,1.207e-06
1367.0,5.054e-07
1368.0,8.188e-16
1369.0,4.104e-08
1370.0,1.93e-08
1371.0,1.034e-09
1372.0,2.784e-07
1373.0,6.082e-06
1374.0,2.985e-05
1375.0,5.409e-05
1376.0,5.098e-05
1377.0,2.308e-05
1378.0,0.0002315
1379.0,9.687e-06
1380.0,1.35e-05
1381.0,3.419e-07
1382.0,2.477e-07
1383.0,3.559e-09
1384.0,4.552e-08
1385.0,2.477e-07
1386.0,2.134e-07
1387.0,2.996e-05
1388.0,5.921e-07
1389.0,0.0001081
1390.0,9.29e-05
1391.0,6.13e-05
1392.0,3.92e-06
1393.0,2.143e-05
1394.0,1.014e-05
1395.0,7.021e-08
1396.0,2.68e-10
1397.0,8.356e-06
1398.0,0.0002584
1399.0,0.0001643
1400.0,1.086e-10
1401.0,4.938e-10
1402.0,0.0004948
1403.0,0.0006127
1404.0,0.0001855
1405.0,3.279e-08
1406.0,0.0004705
1407.0,4.239e-05
1408.0,0.0003867
1409.0,0.0001239
1410.0,0.0001024
1411.0,0.0005404
1412.0,0.000746
1413.0,0.008254
1414.0,8.13e-05
1415.0,3.818e-05
1416.0,0.01426
1417.0,0.00407
1418.0,0.004589
1419.0,0.0007018
1420.0,0.002799
1421.0,0.003034
1422.0,0.01868
1423.0,0.003555
1424.0,0.006733
1425.0,0.009788
1426.0,0.01141
1427.0,0.02168
1428.0,0.001386
1429.0,0.01586
1430.0,0.02795
1431.0,0.03094
1432.0,0.001086
1433.0,0.01935
1434.0,0.00968
1435.0,0.009122
1436.0,0.01846
1437.0,0.01417
1438.0,0.005744
1439.0,0.02549
1440.0,0.01908
