interpolation:linear
wavelength,value
280.0,4.6900000000000004e-21
280.5,1.448e-19
281.0,7.606e-19
281.5,4.911e-19
282.0,1.302e-18
282.5,3.362e-18
283.0,1.074e-17
283.5,1.75e-17
284.0,2.788e-16
284.5,7.984e-16
285.0,1.707e-15
285.5,8.53e-15
286.0,3.432e-14
286.5,1.523e-13
287.0,4.318e-13
287.5,1.633e-12
288.0,4.223e-12
288.5,1.445e-11
289.0,4.2e-11
289.5,1.357e-10
290.0,3.93e-10
290.5,8.26e-10
291.0,1.828e-09
291.5,5.418e-09
292.0,1.291e-08
292.5,1.983e-08
293.0,4.778e-08
293.5,1.368e-07
294.0,2.41e-07
294.5,3.137e-07
295.0,5.985e-07
295.5,1.628e-06
296.0,3.257e-06
296.5,4.737e-06
297.0,6.635e-06
297.5,1.879e-05
298.0,3.11e-05
298.5,3.257e-05
299.0,7.482e-05
299.5,0.0001338
300.0,0.000154
300.5,0.0002344
301.0,0.0004634
301.5,0.0008127
302.0,0.0007368
302.5,0.001443
303.0,0.002597
303.5,0.003273
304.0,0.003076
304.5,0.004587
305.0,0.006938
305.5,0.007931
306.0,0.007671
306.5,0.009537
307.0,0.01409
307.5,0.01864
308.0,0.01967
308.5,0.02317
309.0,0.02274
309.5,0.0259
310.0,0.02596
310.5,0.042
311.0,0.05262
311.5,0.05076
312.0,0.05053
312.5,0.0613
313.0,0.06639
313.5,0.06458
314.0,0.08043
314.5,0.07094
315.0,0.09314
315.5,0.07814
316.0,0.06794
316.5,0.09717
317.0,0.1207
317.5,0.1257
318.0,0.09783
318.5,0.1208
319.0,0.1429
319.5,0.1171
320.0,0.1416
320.5,0.1762
321.0,0.156
321.5,0.1495
322.0,0.1603
322.5,0.1395
323.0,0.1384
323.5,0.1694
324.0,0.1976
324.5,0.201
325.0,0.1741
325.5,0.2231
326.0,0.2726
326.5,0.2724
327.0,0.2717
327.5,0.2628
328.0,0.2348
328.5,0.2458
329.0,0.2934
329.5,0.3328
330.0,0.336
330.5,0.2697
331.0,0.275
331.5,0.2791
332.0,0.3007
332.5,0.2971
333.0,0.2965
333.5,0.2689
334.0,0.2757
334.5,0.3174
335.0,0.2979
335.5,0.3479
336.0,0.2408
336.5,0.2822
337.0,0.2318
337.5,0.2885
338.0,0.2812
338.5,0.3246
339.0,0.3213
339.5,0.3091
340.0,0.3634
340.5,0.3275
341.0,0.3195
341.5,0.2934
342.0,0.3506
342.5,0.3281
343.0,0.3609
343.5,0.3399
344.0,0.2513
344.5,0.2538
345.0,0.336
345.5,0.3431
346.0,0.2916
346.5,0.3303
347.0,0.3546
347.5,0.2868
348.0,0.327
348.5,0.3269
349.0,0.3033
349.5,0.3004
350.0,0.3717
350.5,0.3921
351.0,0.3503
351.5,0.3406
352.0,0.3658
352.5,0.2856
353.0,0.3598
353.5,0.3848
354.0,0.3995
354.5,0.4052
355.0,0.4039
355.5,0.365
356.0,0.382
356.5,0.3262
357.0,0.2696
357.5,0.3301
358.0,0.2616
358.5,0.2236
359.0,0.3128
359.5,0.3987
360.0,0.4227
360.5,0.3379
361.0,0.3082
361.5,0.3549
362.0,0.307
362.5,0.425
363.0,0.3819
363.5,0.3518
364.0,0.4304
364.5,0.368
365.0,0.3748
365.5,0.4706
366.0,0.4987
366.5,0.4687
367.0,0.4565
367.5,0.4739
368.0,0.4148
368.5,0.4186
369.0,0.4522
369.5,0.4821
370.0,0.514
370.5,0.3991
371.0,0.4265
371.5,0.5337
372.0,0.3543
372.5,0.4249
373.0,0.4323
373.5,0.2814
374.0,0.4089
374.5,0.3387
375.0,0.3294
375.5,0.4918
376.0,0.4078
376.5,0.4226
377.0,0.4476
377.5,0.5238
378.0,0.5679
378.5,0.5368
379.0,0.4431
379.5,0.4048
380.0,0.4209
380.5,0.51
381.0,0.5112
381.5,0.4053
382.0,0.3601
382.5,0.3071
383.0,0.2843
383.5,0.2739
384.0,0.3022
384.5,0.4447
385.0,0.4411
385.5,0.4109
386.0,0.352
386.5,0.4625
387.0,0.3844
387.5,0.4318
388.0,0.3987
388.5,0.3943
389.0,0.4257
389.5,0.5157
390.0,0.5177
390.5,0.4765
391.0,0.561
391.5,0.5723
392.0,0.4821
392.5,0.4317
393.0,0.2403
393.5,0.1747
394.0,0.3556
394.5,0.4522
395.0,0.5519
395.5,0.5607
396.0,0.4862
396.5,0.2843
397.0,0.2134
397.5,0.4341
398.0,0.608
398.5,0.6286
399.0,0.6809
399.5,0.6788
400.0,0.7049
401.0,0.7149
402.0,0.7546
403.0,0.7171
404.0,0.7063
405.0,0.7064
406.0,0.6952
407.0,0.6842
408.0,0.7111
409.0,0.7613
410.0,0.6654
411.0,0.721
412.0,0.7747
413.0,0.7557
414.0,0.7652
415.0,0.7674
416.0,0.7811
417.0,0.7621
418.0,0.7482
419.0,0.7582
420.0,0.7551
421.0,0.7901
422.0,0.7512
423.0,0.734
424.0,0.7764
425.0,0.7752
426.0,0.7554
427.0,0.7414
428.0,0.7223
429.0,0.6844
430.0,0.5991
431.0,0.5939
432.0,0.767
433.0,0.7714
434.0,0.7164
435.0,0.7483
436.0,0.8433
437.0,0.8322
438.0,0.758
439.0,0.7839
440.0,0.8091
441.0,0.8385
442.0,0.8995
443.0,0.8761
444.0,0.8953
445.0,0.876
446.0,0.8362
447.0,0.9042
448.0,0.9183
449.0,0.9222
450.0,0.9481
451.0,0.9834
452.0,0.9476
453.0,0.8914
454.0,0.9307
455.0,0.9365
456.0,0.9588
457.0,0.9749
458.0,0.9416
459.0,0.9369
460.0,0.9394
461.0,0.9611
462.0,0.9686
463.0,0.962
464.0,0.9463
465.0,0.9345
466.0,0.9436
467.0,0.9264
468.0,0.9373
469.0,0.9423
470.0,0.9123
471.0,0.9112
472.0,0.9601
473.0,0.9477
474.0,0.949
475.0,0.9571
476.0,0.9284
477.0,0.931
478.0,0.9568
479.0,0.9511
480.0,0.953
481.0,0.9709
482.0,0.9761
483.0,0.9644
484.0,0.9447
485.0,0.9001
486.0,0.7869
487.0,0.8248
488.0,0.9049
489.0,0.9077
490.0,0.955
491.0,0.9386
492.0,0.8864
493.0,0.9154
494.0,0.9246
495.0,0.9325
496.0,0.9383
497.0,0.9529
498.0,0.9083
499.0,0.9199
500.0,0.8931
501.0,0.8766
502.0,0.8642
503.0,0.8993
504.0,0.8762
505.0,0.9078
506.0,0.9371
507.0,0.8918
508.0,0.8641
509.0,0.8884
510.0,0.8838
511.0,0.9075
512.0,0.9174
513.0,0.8684
514.0,0.8624
515.0,0.8539
516.0,0.8518
517.0,0.7569
518.0,0.7957
519.0,0.8346
520.0,0.865
521.0,0.8732
522.0,0.8739
523.0,0.8582
524.0,0.8888
525.0,0.8992
526.0,0.859
527.0,0.8094
528.0,0.856
529.0,0.9022
530.0,0.8892
531.0,0.9024
532.0,0.8714
533.0,0.8458
534.0,0.8709
535.0,0.8899
536.0,0.8981
537.0,0.8627
538.0,0.878
539.0,0.8706
540.0,0.8347
541.0,0.8401
542.0,0.8664
543.0,0.8573
544.0,0.8721
545.0,0.8695
546.0,0.8732
547.0,0.8729
548.0,0.8625
549.0,0.8651
550.0,0.8754
551.0,0.8648
552.0,0.8708
553.0,0.8552
554.0,0.8757
555.0,0.8774
556.0,0.866
557.0,0.839
558.0,0.8327
559.0,0.8171
560.0,0.8272
561.0,0.8379
562.0,0.8318
563.0,0.8544
564.0,0.8311
565.0,0.8238
566.0,0.8117
567.0,0.827
568.0,0.8194
569.0,0.7995
570.0,0.7994
571.0,0.7947
572.0,0.8135
573.0,0.8221
574.0,0.8195
575.0,0.804
576.0,0.7967
577.0,0.8054
578.0,0.7935
579.0,0.7968
580.0,0.8122
581.0,0.8167
582.0,0.8323
583.0,0.8345
584.0,0.8419
585.0,0.8214
586.0,0.8045
587.0,0.822
588.0,0.8015
589.0,0.7091
590.0,0.7416
591.0,0.7854
592.0,0.7751
593.0,0.787
594.0,0.7814
595.0,0.7617
596.0,0.7926
597.0,0.7838
598.0,0.782
599.0,0.7828
600.0,0.7842
601.0,0.778
602.0,0.7727
603.0,0.7856
604.0,0.7986
605.0,0.7945
606.0,0.7913
607.0,0.7993
608.0,0.7905
609.0,0.792
610.0,0.7864
611.0,0.7906
612.0,0.7883
613.0,0.7784
614.0,0.7679
615.0,0.7847
616.0,0.7589
617.0,0.7574
618.0,0.7866
619.0,0.7786
620.0,0.7836
621.0,0.7843
622.0,0.775
623.0,0.7631
624.0,0.7501
625.0,0.7484
626.0,0.7595
627.0,0.7678
628.0,0.7147
629.0,0.7488
630.0,0.7315
631.0,0.7488
632.0,0.74
633.0,0.7628
634.0,0.7557
635.0,0.7676
636.0,0.7575
637.0,0.7701
638.0,0.7777
639.0,0.769
640.0,0.7617
641.0,0.7613
642.0,0.7579
643.0,0.7681
644.0,0.7657
645.0,0.7669
646.0,0.7487
647.0,0.7392
648.0,0.7399
649.0,0.7255
650.0,0.7298
651.0,0.7616
652.0,0.729
653.0,0.7515
654.0,0.7433
655.0,0.7151
656.0,0.6341
657.0,0.6512
658.0,0.7301
659.0,0.7354
660.0,0.7386
661.0,0.7438
662.0,0.7451
663.0,0.7305
664.0,0.7393
665.0,0.7401
666.0,0.7408
667.0,0.7402
668.0,0.7406
669.0,0.7521
670.0,0.7489
671.0,0.7488
672.0,0.7424
673.0,0.7536
674.0,0.7508
675.0,0.744
676.0,0.7492
677.0,0.7418
678.0,0.7439
679.0,0.7319
680.0,0.7378
681.0,0.733
682.0,0.732
683.0,0.7306
684.0,0.727
685.0,0.7333
686.0,0.7288
687.0,0.4736
688.0,0.5599
689.0,0.5621
690.0,0.5912
691.0,0.6241
692.0,0.6483
693.0,0.6429
694.0,0.6376
695.0,0.6652
696.0,0.6662
697.0,0.7085
698.0,0.6975
699.0,0.6798
700.0,0.6715
701.0,0.6644
702.0,0.6693
703.0,0.6706
704.0,0.6927
705.0,0.6937
706.0,0.6934
707.0,0.694
708.0,0.6955
709.0,0.6969
710.0,0.6966
711.0,0.6958
712.0,0.6939
713.0,0.6867
714.0,0.6894
715.0,0.6672
716.0,0.6675
717.0,0.5752
718.0,0.5277
719.0,0.483
720.0,0.5057
721.0,0.5605
722.0,0.6437
723.0,0.598
724.0,0.5373
725.0,0.5281
726.0,0.5531
727.0,0.5619
728.0,0.5267
729.0,0.5477
730.0,0.5795
731.0,0.5541
732.0,0.5941
733.0,0.6302
734.0,0.6456
735.0,0.632
736.0,0.6312
737.0,0.6337
738.0,0.6444
739.0,0.6317
740.0,0.6484
741.0,0.6422
742.0,0.643
743.0,0.6594
744.0,0.6576
745.0,0.6578
746.0,0.6608
747.0,0.6623
748.0,0.6609
749.0,0.6534
750.0,0.653
751.0,0.6464
752.0,0.6492
753.0,0.6525
754.0,0.654
755.0,0.6502
756.0,0.65
757.0,0.6509
758.0,0.6428
759.0,0.6292
760.0,0.09442
761.0,0.04765
762.0,0.3098
763.0,0.1481
764.0,0.2285
765.0,0.3098
766.0,0.3861
767.0,0.4931
768.0,0.574
769.0,0.5872
770.0,0.6084
771.0,0.6139
772.0,0.6153
773.0,0.6197
774.0,0.6167
775.0,0.6121
776.0,0.6195
777.0,0.6114
778.0,0.6077
779.0,0.6082
780.0,0.6048
781.0,0.6054
782.0,0.6092
783.0,0.5986
784.0,0.6015
785.0,0.597
786.0,0.6035
787.0,0.5925
788.0,0.5849
789.0,0.5846
790.0,0.5684
791.0,0.574
792.0,0.5698
793.0,0.5605
794.0,0.5709
795.0,0.5803
796.0,0.5615
797.0,0.5622
798.0,0.5795
799.0,0.5756
800.0,0.5654
801.0,0.5634
802.0,0.5618
803.0,0.5574
804.0,0.5583
805.0,0.5568
806.0,0.5729
807.0,0.5659
808.0,0.5665
809.0,0.5555
810.0,0.5507
811.0,0.5508
812.0,0.5344
813.0,0.5229
814.0,0.4579
815.0,0.4552
816.0,0.4234
817.0,0.4314
818.0,0.4148
819.0,0.4656
820.0,0.4377
821.0,0.5143
822.0,0.4992
823.0,0.3353
824.0,0.4837
825.0,0.5053
826.0,0.4853
827.0,0.513
828.0,0.4324
829.0,0.4825
830.0,0.476
831.0,0.4777
832.0,0.4626
833.0,0.4934
834.0,0.4751
835.0,0.5238
836.0,0.5002
837.0,0.5253
838.0,0.5084
839.0,0.5175
840.0,0.529
841.0,0.5212
842.0,0.5228
843.0,0.5229
844.0,0.5154
845.0,0.5331
846.0,0.5309
847.0,0.5211
848.0,0.5177
849.0,0.503
850.0,0.4819
851.0,0.51
852.0,0.5065
853.0,0.4877
854.0,0.421
855.0,0.4627
856.0,0.5056
857.0,0.517
858.0,0.5131
859.0,0.5137
860.0,0.5146
861.0,0.5118
862.0,0.5199
863.0,0.5322
864.0,0.5056
865.0,0.5012
866.0,0.4506
867.0,0.4703
868.0,0.5118
869.0,0.5011
870.0,0.5154
871.0,0.5084
872.0,0.5066
873.0,0.5056
874.0,0.4996
875.0,0.4895
876.0,0.4946
877.0,0.4996
878.0,0.505
879.0,0.4972
880.0,0.4865
881.0,0.4791
882.0,0.4894
883.0,0.4911
884.0,0.4888
885.0,0.4925
886.0,0.469
887.0,0.4743
888.0,0.481
889.0,0.4869
890.0,0.4824
891.0,0.4818
892.0,0.4673
893.0,0.452
894.0,0.4348
895.0,0.4092
896.0,0.3849
897.0,0.3285
898.0,0.3596
899.0,0.271
900.0,0.3695
901.0,0.2841
902.0,0.3368
903.0,0.339
904.0,0.4315
905.0,0.416
906.0,0.3887
907.0,0.3125
908.0,0.3193
909.0,0.3473
910.0,0.3044
911.0,0.3263
912.0,0.3416
913.0,0.3088
914.0,0.3067
915.0,0.3325
916.0,0.2808
917.0,0.3593
918.0,0.2877
919.0,0.3667
920.0,0.3721
921.0,0.3872
922.0,0.3441
923.0,0.3742
924.0,0.3523
925.0,0.3447
926.0,0.3483
927.0,0.392
928.0,0.2816
929.0,0.2554
930.0,0.198
931.0,0.188
932.0,0.1325
933.0,0.1062
934.0,0.05521
935.0,0.1099
936.0,0.06668
937.0,0.06738
938.0,0.08362
939.0,0.182
940.0,0.221
941.0,0.1641
942.0,0.1917
943.0,0.1239
944.0,0.1325
945.0,0.1697
946.0,0.08344
947.0,0.1697
948.0,0.1243
949.0,0.2301
950.0,0.05952
951.0,0.2271
952.0,0.1181
953.0,0.1551
954.0,0.1931
955.0,0.1572
956.0,0.1545
957.0,0.118
958.0,0.2228
959.0,0.1737
960.0,0.1947
961.0,0.2211
962.0,0.2089
963.0,0.2431
964.0,0.222
965.0,0.2424
966.0,0.2419
967.0,0.2406
968.0,0.3307
969.0,0.3446
970.0,0.3155
971.0,0.3646
972.0,0.3481
973.0,0.2995
974.0,0.2838
975.0,0.296
976.0,0.2791
977.0,0.3215
978.0,0.3038
979.0,0.3193
980.0,0.2995
981.0,0.3626
982.0,0.3454
983.0,0.3309
984.0,0.3752
985.0,0.3441
986.0,0.3827
987.0,0.3741
988.0,0.3735
989.0,0.3821
990.0,0.3712
991.0,0.3831
992.0,0.3854
993.0,0.3758
994.0,0.3854
995.0,0.3851
996.0,0.3832
997.0,0.3839
998.0,0.382
999.0,0.3807
1000.0,0.3777
1001.0,0.3827
1002.0,0.3712
1003.0,0.3759
1004.0,0.3664
1005.0,0.3534
1006.0,0.367
1007.0,0.3749
1008.0,0.3727
1009.0,0.3705
1010.0,0.3688
1011.0,0.373
1012.0,0.3696
1013.0,0.3721
1014.0,0.3695
1015.0,0.3671
1016.0,0.3654
1017.0,0.3663
1018.0,0.365
1019.0,0.3569
1020.0,0.363
1021.0,0.3626
1022.0,0.3596
1023.0,0.3634
1024.0,0.3583
1025.0,0.3633
1026.0,0.3617
1027.0,0.3609
1028.0,0.3601
1029.0,0.3558
1030.0,0.3583
1031.0,0.3569
1032.0,0.3559
1033.0,0.3505
1034.0,0.3505
1035.0,0.3516
1036.0,0.3534
1037.0,0.3477
1038.0,0.3492
1039.0,0.349
1040.0,0.3475
1041.0,0.3489
1042.0,0.3465
1043.0,0.3453
1044.0,0.3465
1045.0,0.3418
1046.0,0.338
1047.0,0.341
1048.0,0.3429
1049.0,0.3416
1050.0,0.34
1051.0,0.3395
1052.0,0.338
1053.0,0.3353
1054.0,0.336
1055.0,0.3361
1056.0,0.3349
1057.0,0.3338
1058.0,0.3255
1059.0,0.3258
1060.0,0.3253
1061.0,0.3249
1062.0,0.3265
1063.0,0.3232
1064.0,0.3271
1065.0,0.3246
1066.0,0.3183
1067.0,0.3223
1068.0,0.3152
1069.0,0.3055
1070.0,0.3158
1071.0,0.3211
1072.0,0.3171
1073.0,0.3126
1074.0,0.3211
1075.0,0.3039
1076.0,0.3207
1077.0,0.3144
1078.0,0.3082
1079.0,0.3158
1080.0,0.3095
1081.0,0.2991
1082.0,0.3048
1083.0,0.306
1084.0,0.2981
1085.0,0.3104
1086.0,0.2816
1087.0,0.2918
1088.0,0.3055
1089.0,0.2951
1090.0,0.288
1091.0,0.3042
1092.0,0.3037
1093.0,0.2545
1094.0,0.2775
1095.0,0.2655
1096.0,0.2534
1097.0,0.2966
1098.0,0.249
1099.0,0.2603
1100.0,0.2407
1101.0,0.2441
1102.0,0.2323
1103.0,0.2295
1104.0,0.2299
1105.0,0.254
1106.0,0.1894
1107.0,0.2403
1108.0,0.2008
1109.0,0.2017
1110.0,0.2378
1111.0,0.1574
1112.0,0.2004
1113.0,0.1236
1114.0,0.1385
1115.0,0.1146
1116.0,0.08913
1117.0,0.03025
1118.0,0.09777
1119.0,0.04644
1120.0,0.05828
1121.0,0.0786
1122.0,0.0313
1123.0,0.05276
1124.0,0.0445
1125.0,0.05857
1126.0,0.01865
1127.0,0.06623
1128.0,0.0377
1129.0,0.04026
1130.0,0.02582
1131.0,0.1303
1132.0,0.1014
1133.0,0.06166
1134.0,0.01438
1135.0,0.005472
1136.0,0.05054
1137.0,0.1272
1138.0,0.08909
1139.0,0.1379
1140.0,0.1133
1141.0,0.0847
1142.0,0.09845
1143.0,0.1419
1144.0,0.04716
1145.0,0.05953
1146.0,0.06417
1147.0,0.02078
1148.0,0.1227
1149.0,0.09646
1150.0,0.05101
1151.0,0.08837
1152.0,0.1106
1153.0,0.1091
1154.0,0.05748
1155.0,0.1438
1156.0,0.1285
1157.0,0.1458
1158.0,0.1442
1159.0,0.1568
1160.0,0.1327
1161.0,0.1662
1162.0,0.1668
1163.0,0.2295
1164.0,0.1953
1165.0,0.1828
1166.0,0.1826
1167.0,0.1997
1168.0,0.2015
1169.0,0.2068
1170.0,0.226
1171.0,0.2202
1172.0,0.2249
1173.0,0.2255
1174.0,0.1582
1175.0,0.2209
1176.0,0.2443
1177.0,0.2335
1178.0,0.1733
1179.0,0.2463
1180.0,0.2182
1181.0,0.2253
1182.0,0.1532
1183.0,0.2222
1184.0,0.2075
1185.0,0.1996
1186.0,0.2388
1187.0,0.2268
1188.0,0.1555
1189.0,0.2111
1190.0,0.2334
1191.0,0.2204
1192.0,0.2368
1193.0,0.2265
1194.0,0.2338
1195.0,0.2203
1196.0,0.2116
1197.0,0.2343
1198.0,0.2138
1199.0,0.1801
1200.0,0.2236
1201.0,0.2151
1202.0,0.2143
1203.0,0.2123
1204.0,0.1848
1205.0,0.2198
1206.0,0.2436
1207.0,0.2135
1208.0,0.2106
1209.0,0.2151
1210.0,0.2245
1211.0,0.2131
1212.0,0.2098
1213.0,0.2352
1214.0,0.2152
1215.0,0.2109
1216.0,0.2345
1217.0,0.228
1218.0,0.2326
1219.0,0.2296
1220.0,0.2329
1221.0,0.2354
1222.0,0.2291
1223.0,0.2268
1224.0,0.2252
1225.0,0.2338
1226.0,0.2356
1227.0,0.2165
1228.0,0.237
1229.0,0.2356
1230.0,0.2315
1231.0,0.2386
1232.0,0.2371
1233.0,0.2283
1234.0,0.2385
1235.0,0.2369
1236.0,0.2387
1237.0,0.2351
1238.0,0.2379
1239.0,0.2348
1240.0,0.2358
1241.0,0.2345
1242.0,0.2341
1243.0,0.2322
1244.0,0.2338
1245.0,0.2349
1246.0,0.2335
1247.0,0.2325
1248.0,0.2323
1249.0,0.2331
1250.0,0.2316
1251.0,0.2286
1252.0,0.2287
1253.0,0.2267
1254.0,0.2242
1255.0,0.2284
1256.0,0.2216
1257.0,0.2203
1258.0,0.2248
1259.0,0.216
1260.0,0.2172
1261.0,0.2041
1262.0,0.1976
1263.0,0.1979
1264.0,0.1817
1265.0,0.1967
1266.0,0.1886
1267.0,0.1924
1268.0,0.1818
1269.0,0.1084
1270.0,0.1915
1271.0,0.2036
1272.0,0.2043
1273.0,0.2021
1274.0,0.2028
1275.0,0.2059
1276.0,0.2081
1277.0,0.2097
1278.0,0.214
1279.0,0.2121
1280.0,0.2094
1281.0,0.2
1282.0,0.1929
1283.0,0.2077
1284.0,0.2127
1285.0,0.2141
1286.0,0.2171
1287.0,0.2135
1288.0,0.2135
1289.0,0.2063
1290.0,0.2117
1291.0,0.2148
1292.0,0.2008
1293.0,0.2103
1294.0,0.2088
1295.0,0.2075
1296.0,0.1975
1297.0,0.1864
1298.0,0.2016
1299.0,0.2107
1300.0,0.1767
1301.0,0.1824
1302.0,0.2009
1303.0,0.1746
1304.0,0.1473
1305.0,0.1967
1306.0,0.1966
1307.0,0.1511
1308.0,0.1751
1309.0,0.1949
1310.0,0.1481
1311.0,0.1675
1312.0,0.1627
1313.0,0.1593
1314.0,0.142
1315.0,0.1397
1316.0,0.1646
1317.0,0.1557
1318.0,0.1699
1319.0,0.1308
1320.0,0.1272
1321.0,0.1488
1322.0,0.1499
1323.0,0.1111
1324.0,0.1283
1325.0,0.1621
1326.0,0.138
1327.0,0.1314
1328.0,0.1127
1329.0,0.08309
1330.0,0.109
1331.0,0.0639
1332.0,0.06661
1333.0,0.09314
1334.0,0.07987
1335.0,0.1107
1336.0,0.08652
1337.0,0.07602
1338.0,0.08225
1339.0,0.08216
1340.0,0.08044
1341.0,0.07732
1342.0,0.08133
1343.0,0.05267
1344.0,0.03171
1345.0,0.04581
1346.0,0.02128
1347.0,0.02138
1348.0,0.001193
1349.0,0.004472
1350.0,0.004787
1351.0,0.001015
1352.0,0.0002353
1353.0,1.031e-05
1354.0,3.944e-05
1355.0,2.301e-07
1356.0,4.991e-06
1357.0,7.627e-06
1358.0,2.761e-07
1359.0,2.719e-08
1360.0,1.157e-07
1361.0,7.719e-11
1362.0,1.712e-13
1363.0,1.443e-07
1364.0,5.945e-08
1365.0,4.515e-14
1366.0,6.735e-07
1367.0,2.905e-07
1368.0,2.012e-16
1369.0,2.199e-08
1370.0,9.775e-09
1371.0,4.91e-10
1372.0,1.603e-07
1373.0,3.819e-06
1374.0,1.991e-05
1375.0,3.583e-05
1376.0,3.572e-05
1377.0,1.597e-05
1378.0,0.0001638
1379.0,6.699e-06
1380.0,8.973e-06
1381.0,2.202e-07
1382.0,1.403e-07
1383.0,1.929e-09
1384.0,2.382e-08
1385.0,1.498e-07
1386.0,1.161e-07
1387.0,1.917e-05
1388.0,3.821e-07
1389.0,7.421e-05
1390.0,6.359e-05
1391.0,4.153e-05
1392.0,2.614e-06
1393.0,1.475e-05
1394.0,6.305e-06
1395.0,4.097e-08
1396.0,1.195e-10
1397.0,5.616e-06
1398.0,0.0001814
1399.0,0.0001156
1400.0,4.492e-11
1401.0,2.26e-10
1402.0,0.0003801
1403.0,0.0004628
1404.0,0.000139
1405.0,1.824e-08
1406.0,0.0003424
1407.0,3.168e-05
1408.0,0.000283
1409.0,8.641e-05
1410.0,7.402e-05
1411.0,0.0004096
1412.0,0.0005786
1413.0,0.006825
1414.0,5.915e-05
1415.0,2.718e-05
1416.0,0.0123
1417.0,0.00337
1418.0,0.003761
1419.0,0.0005696
1420.0,0.00229
1421.0,0.002494
1422.0,0.01613
1423.0,0.003037
1424.0,0.005795
1425.0,0.008346
1426.0,0.009909
1427.0,0.01921
1428.0,0.001105
1429.0,0.01386
1430.0,0.02493
1431.0,0.02773
1432.0,0.0008634
1433.0,0.01718
1434.0,0.008513
1435.0,0.007748
1436.0,0.01612
1437.0,0.01238
