interpolation:linear
wavelength,value
280.0,2.5310000000000002e-20
280.5,7.309e-19
281.0,3.755e-18
281.5,4.178e-19
282.0,1.708e-18
282.5,4.769e-18
283.0,1.58e-17
283.5,2.602e-17
284.0,4.128e-16
284.5,1.169e-15
285.0,1.851e-15
285.5,1.069e-14
286.0,4.471e-14
286.5,2.09e-13
287.0,6.09e-13
287.5,2.362e-12
288.0,7.568e-12
288.5,2.938e-11
289.0,9.639e-11
289.5,3.529e-10
290.0,1.13e-09
290.5,2.582e-09
291.0,6.301e-09
291.5,2.108e-08
292.0,5.811e-08
292.5,9.204e-08
293.0,2.308e-07
293.5,6.994e-07
294.0,1.291e-06
294.5,1.708e-06
295.0,3.392e-06
295.5,8.57e-06
296.0,1.657e-05
296.5,2.322e-05
297.0,3.145e-05
297.5,8.437e-05
298.0,0.0001329
298.5,0.0001337
299.0,0.0002947
299.5,0.0004879
300.0,0.0005363
300.5,0.0007763
301.0,0.001403
301.5,0.002238
302.0,0.001918
302.5,0.00365
303.0,0.006331
303.5,0.007793
304.0,0.007203
304.5,0.01029
305.0,0.01469
305.5,0.0162
306.0,0.01545
306.5,0.01878
307.0,0.02642
307.5,0.03338
308.0,0.03497
308.5,0.04029
309.0,0.03902
309.5,0.04314
310.0,0.04264
310.5,0.06852
311.0,0.08486
311.5,0.08144
312.0,0.07907
312.5,0.09435
313.0,0.1013
313.5,0.09929
314.0,0.1212
314.5,0.1041
315.0,0.1361
315.5,0.1156
316.0,0.09838
316.5,0.1382
317.0,0.1716
317.5,0.1797
318.0,0.1381
318.5,0.1665
319.0,0.1946
319.5,0.1625
320.0,0.197
320.5,0.2393
321.0,0.2074
321.5,0.1983
322.0,0.2175
322.5,0.1889
323.0,0.1846
323.5,0.2229
324.0,0.2594
324.5,0.2653
325.0,0.2315
325.5,0.2932
326.0,0.3568
326.5,0.3537
327.0,0.3538
327.5,0.3434
328.0,0.3099
328.5,0.3204
329.0,0.3786
329.5,0.428
330.0,0.4332
330.5,0.3502
331.0,0.358
331.5,0.3611
332.0,0.3859
332.5,0.3798
333.0,0.3798
333.5,0.3465
334.0,0.3554
334.5,0.4063
335.0,0.3798
335.5,0.4436
336.0,0.3069
336.5,0.3603
337.0,0.2967
337.5,0.3696
338.0,0.3581
338.5,0.4132
339.0,0.4089
339.5,0.3934
340.0,0.4624
340.5,0.4165
341.0,0.4062
341.5,0.3729
342.0,0.4455
342.5,0.4168
343.0,0.4584
343.5,0.4318
344.0,0.319
344.5,0.3223
345.0,0.4263
345.5,0.4352
346.0,0.3698
346.5,0.4187
347.0,0.4495
347.5,0.3635
348.0,0.4142
348.5,0.414
349.0,0.384
349.5,0.3802
350.0,0.4702
350.5,0.496
351.0,0.4431
351.5,0.4308
352.0,0.4626
352.5,0.3609
353.0,0.4545
353.5,0.486
354.0,0.5045
354.5,0.5117
355.0,0.51
355.5,0.4607
356.0,0.482
356.5,0.4115
357.0,0.3401
357.5,0.4163
358.0,0.3299
358.5,0.2819
359.0,0.3944
359.5,0.5027
360.0,0.5328
360.5,0.4259
361.0,0.3882
361.5,0.4469
362.0,0.3865
362.5,0.5348
363.0,0.4803
363.5,0.4424
364.0,0.541
364.5,0.4625
365.0,0.471
365.5,0.5912
366.0,0.6263
366.5,0.5885
367.0,0.5731
367.5,0.5947
368.0,0.5205
368.5,0.5252
369.0,0.5672
369.5,0.6045
370.0,0.6445
370.5,0.5002
371.0,0.5345
371.5,0.6687
372.0,0.4438
372.5,0.5322
373.0,0.5413
373.5,0.3522
374.0,0.5118
374.5,0.4239
375.0,0.4121
375.5,0.6152
376.0,0.51
376.5,0.5286
377.0,0.5596
377.5,0.6548
378.0,0.7098
378.5,0.6709
379.0,0.5537
379.5,0.5058
380.0,0.526
380.5,0.637
381.0,0.6384
381.5,0.506
382.0,0.4494
382.5,0.3831
383.0,0.3547
383.5,0.3416
384.0,0.3769
384.5,0.5543
385.0,0.5497
385.5,0.512
386.0,0.4385
386.5,0.576
387.0,0.4787
387.5,0.5377
388.0,0.4964
388.5,0.4907
389.0,0.5298
389.5,0.6417
390.0,0.644
390.5,0.5927
391.0,0.6977
391.5,0.7117
392.0,0.5994
392.5,0.5367
393.0,0.2986
393.5,0.2171
394.0,0.4417
394.5,0.5616
395.0,0.6854
395.5,0.6963
396.0,0.6037
396.5,0.3529
397.0,0.2649
397.5,0.5387
398.0,0.7544
398.5,0.7798
399.0,0.8444
399.5,0.8416
400.0,0.874
401.0,0.8877
402.0,0.9366
403.0,0.8897
404.0,0.876
405.0,0.876
406.0,0.8617
407.0,0.8478
408.0,0.881
409.0,0.9429
410.0,0.8239
411.0,0.8924
412.0,0.9584
413.0,0.9347
414.0,0.9462
415.0,0.9486
416.0,0.9651
417.0,0.9414
418.0,0.9241
419.0,0.9362
420.0,0.9321
421.0,0.9751
422.0,0.9268
423.0,0.9053
424.0,0.9575
425.0,0.9558
426.0,0.9308
427.0,0.9134
428.0,0.8898
429.0,0.8427
430.0,0.7375
431.0,0.731
432.0,0.9437
433.0,0.9489
434.0,0.8812
435.0,0.9203
436.0,1.037
437.0,1.023
438.0,0.9312
439.0,0.9634
440.0,0.9939
441.0,1.03
442.0,1.104
443.0,1.076
444.0,1.099
445.0,1.075
446.0,1.026
447.0,1.109
448.0,1.126
449.0,1.131
450.0,1.162
451.0,1.205
452.0,1.161
453.0,1.092
454.0,1.14
455.0,1.147
456.0,1.174
457.0,1.193
458.0,1.153
459.0,1.147
460.0,1.15
461.0,1.177
462.0,1.185
463.0,1.177
464.0,1.157
465.0,1.143
466.0,1.153
467.0,1.132
468.0,1.146
469.0,1.152
470.0,1.115
471.0,1.114
472.0,1.173
473.0,1.158
474.0,1.16
475.0,1.17
476.0,1.136
477.0,1.139
478.0,1.171
479.0,1.163
480.0,1.165
481.0,1.187
482.0,1.193
483.0,1.178
484.0,1.153
485.0,1.099
486.0,0.9603
487.0,1.006
488.0,1.104
489.0,1.108
490.0,1.165
491.0,1.145
492.0,1.081
493.0,1.116
494.0,1.127
495.0,1.137
496.0,1.144
497.0,1.162
498.0,1.107
499.0,1.122
500.0,1.089
501.0,1.07
502.0,1.055
503.0,1.098
504.0,1.072
505.0,1.109
506.0,1.145
507.0,1.089
508.0,1.055
509.0,1.084
510.0,1.078
511.0,1.107
512.0,1.119
513.0,1.059
514.0,1.051
515.0,1.041
516.0,1.039
517.0,0.9227
518.0,0.9701
519.0,1.018
520.0,1.055
521.0,1.065
522.0,1.066
523.0,1.047
524.0,1.084
525.0,1.097
526.0,1.048
527.0,0.9882
528.0,1.045
529.0,1.102
530.0,1.086
531.0,1.103
532.0,1.065
533.0,1.033
534.0,1.064
535.0,1.087
536.0,1.097
537.0,1.053
538.0,1.072
539.0,1.063
540.0,1.019
541.0,1.026
542.0,1.059
543.0,1.047
544.0,1.066
545.0,1.062
546.0,1.067
547.0,1.067
548.0,1.054
549.0,1.057
550.0,1.069
551.0,1.056
552.0,1.064
553.0,1.045
554.0,1.07
555.0,1.072
556.0,1.058
557.0,1.025
558.0,1.018
559.0,0.9989
560.0,1.011
561.0,1.025
562.0,1.018
563.0,1.046
564.0,1.017
565.0,1.009
566.0,0.9942
567.0,1.013
568.0,1.005
569.0,0.9822
570.0,0.9818
571.0,0.9755
572.0,0.9998
573.0,1.011
574.0,1.008
575.0,0.9891
576.0,0.98
577.0,0.9906
578.0,0.9754
579.0,0.9786
580.0,0.9964
581.0,1.001
582.0,1.019
583.0,1.021
584.0,1.03
585.0,1.004
586.0,0.9837
587.0,1.006
588.0,0.9828
589.0,0.8738
590.0,0.9136
591.0,0.9649
592.0,0.9538
593.0,0.9665
594.0,0.9604
595.0,0.9377
596.0,0.9722
597.0,0.9623
598.0,0.9591
599.0,0.9596
600.0,0.9604
601.0,0.952
602.0,0.9455
603.0,0.9609
604.0,0.9767
605.0,0.9715
606.0,0.9673
607.0,0.9766
608.0,0.9655
609.0,0.967
610.0,0.9598
611.0,0.9647
612.0,0.9617
613.0,0.9495
614.0,0.9363
615.0,0.9565
616.0,0.9248
617.0,0.9228
618.0,0.9582
619.0,0.9484
620.0,0.9544
621.0,0.9555
622.0,0.9446
623.0,0.9304
624.0,0.9143
625.0,0.9122
626.0,0.9257
627.0,0.9366
628.0,0.8813
629.0,0.9167
630.0,0.8958
631.0,0.9138
632.0,0.9025
633.0,0.929
634.0,0.9193
635.0,0.9333
636.0,0.9205
637.0,0.9353
638.0,0.9438
639.0,0.9329
640.0,0.9236
641.0,0.9228
642.0,0.9183
643.0,0.9307
644.0,0.9274
645.0,0.929
646.0,0.9082
647.0,0.8991
648.0,0.9002
649.0,0.8828
650.0,0.8849
651.0,0.9227
652.0,0.8868
653.0,0.9104
654.0,0.9001
655.0,0.8678
656.0,0.7682
657.0,0.7888
658.0,0.8833
659.0,0.8893
660.0,0.8929
661.0,0.8991
662.0,0.9014
663.0,0.8834
664.0,0.8932
665.0,0.8934
666.0,0.8939
667.0,0.8928
668.0,0.893
669.0,0.9066
670.0,0.9026
671.0,0.9023
672.0,0.8945
673.0,0.9079
674.0,0.9044
675.0,0.8961
676.0,0.9021
677.0,0.8931
678.0,0.8955
679.0,0.881
680.0,0.888
681.0,0.8821
682.0,0.881
683.0,0.8793
684.0,0.8749
685.0,0.8823
686.0,0.8771
687.0,0.6106
688.0,0.7021
689.0,0.7041
690.0,0.734
691.0,0.7675
692.0,0.7914
693.0,0.7853
694.0,0.7788
695.0,0.8076
696.0,0.8087
697.0,0.8539
698.0,0.8407
699.0,0.8234
700.0,0.8135
701.0,0.8062
702.0,0.8107
703.0,0.8122
704.0,0.8364
705.0,0.8377
706.0,0.8363
707.0,0.8367
708.0,0.8386
709.0,0.8387
710.0,0.8392
711.0,0.8377
712.0,0.8347
713.0,0.8267
714.0,0.8298
715.0,0.8046
716.0,0.8054
717.0,0.7089
718.0,0.6528
719.0,0.599
720.0,0.6283
721.0,0.6871
722.0,0.7792
723.0,0.729
724.0,0.6609
725.0,0.6518
726.0,0.6815
727.0,0.6888
728.0,0.6506
729.0,0.6712
730.0,0.7102
731.0,0.6807
732.0,0.7242
733.0,0.7628
734.0,0.7799
735.0,0.7643
736.0,0.7633
737.0,0.7664
738.0,0.7757
739.0,0.7605
740.0,0.7795
741.0,0.7713
742.0,0.7716
743.0,0.7911
744.0,0.7886
745.0,0.7885
746.0,0.7921
747.0,0.7938
748.0,0.7921
749.0,0.783
750.0,0.7825
751.0,0.7746
752.0,0.7779
753.0,0.7818
754.0,0.7836
755.0,0.7791
756.0,0.7788
757.0,0.7799
758.0,0.7703
759.0,0.7561
760.0,0.1529
761.0,0.08589
762.0,0.4148
763.0,0.2234
764.0,0.3216
765.0,0.415
766.0,0.4963
767.0,0.6132
768.0,0.6973
769.0,0.7097
770.0,0.7312
771.0,0.736
772.0,0.7372
773.0,0.7422
774.0,0.7386
775.0,0.7329
776.0,0.7418
777.0,0.732
778.0,0.7276
779.0,0.7282
780.0,0.7241
781.0,0.7248
782.0,0.7293
783.0,0.7166
784.0,0.72
785.0,0.7147
786.0,0.7227
787.0,0.7112
788.0,0.7028
789.0,0.7027
790.0,0.6856
791.0,0.69
792.0,0.6847
793.0,0.6738
794.0,0.6837
795.0,0.6956
796.0,0.6764
797.0,0.6773
798.0,0.695
799.0,0.691
800.0,0.6795
801.0,0.6779
802.0,0.6759
803.0,0.671
804.0,0.6717
805.0,0.669
806.0,0.6867
807.0,0.6787
808.0,0.6792
809.0,0.6672
810.0,0.6623
811.0,0.6642
812.0,0.6466
813.0,0.6341
814.0,0.5628
815.0,0.5592
816.0,0.5211
817.0,0.5301
818.0,0.5114
819.0,0.5674
820.0,0.536
821.0,0.6207
822.0,0.6039
823.0,0.42
824.0,0.5884
825.0,0.6101
826.0,0.5888
827.0,0.6195
828.0,0.5305
829.0,0.5848
830.0,0.5777
831.0,0.5796
832.0,0.5628
833.0,0.596
834.0,0.5767
835.0,0.6298
836.0,0.6052
837.0,0.6314
838.0,0.6128
839.0,0.6216
840.0,0.635
841.0,0.6264
842.0,0.6271
843.0,0.6261
844.0,0.6177
845.0,0.6381
846.0,0.6352
847.0,0.6231
848.0,0.6196
849.0,0.602
850.0,0.5767
851.0,0.6109
852.0,0.6064
853.0,0.5835
854.0,0.504
855.0,0.5534
856.0,0.6049
857.0,0.6182
858.0,0.6138
859.0,0.6142
860.0,0.6152
861.0,0.6118
862.0,0.6214
863.0,0.6361
864.0,0.6043
865.0,0.599
866.0,0.5386
867.0,0.562
868.0,0.6116
869.0,0.5989
870.0,0.6159
871.0,0.6076
872.0,0.6054
873.0,0.6042
874.0,0.597
875.0,0.5849
876.0,0.591
877.0,0.597
878.0,0.6035
879.0,0.5942
880.0,0.5815
881.0,0.5729
882.0,0.5853
883.0,0.587
884.0,0.5844
885.0,0.5888
886.0,0.5616
887.0,0.5672
888.0,0.5758
889.0,0.5819
890.0,0.5775
891.0,0.5763
892.0,0.5603
893.0,0.5435
894.0,0.5259
895.0,0.4987
896.0,0.4706
897.0,0.4067
898.0,0.4424
899.0,0.3395
900.0,0.4515
901.0,0.3557
902.0,0.4135
903.0,0.4189
904.0,0.5219
905.0,0.5047
906.0,0.473
907.0,0.3879
908.0,0.3951
909.0,0.4263
910.0,0.38
911.0,0.4032
912.0,0.4208
913.0,0.3858
914.0,0.382
915.0,0.4139
916.0,0.3512
917.0,0.4424
918.0,0.3602
919.0,0.4496
920.0,0.4526
921.0,0.4704
922.0,0.4227
923.0,0.4543
924.0,0.4334
925.0,0.424
926.0,0.4287
927.0,0.4779
928.0,0.3563
929.0,0.3268
930.0,0.2591
931.0,0.2451
932.0,0.1788
933.0,0.1465
934.0,0.08284
935.0,0.149
936.0,0.09456
937.0,0.09603
938.0,0.1175
939.0,0.2375
940.0,0.2841
941.0,0.2166
942.0,0.2495
943.0,0.1657
944.0,0.173
945.0,0.2229
946.0,0.1156
947.0,0.2245
948.0,0.1652
949.0,0.2984
950.0,0.08614
951.0,0.2934
952.0,0.1604
953.0,0.2054
954.0,0.2498
955.0,0.2075
956.0,0.2003
957.0,0.1609
958.0,0.2811
959.0,0.2255
960.0,0.2527
961.0,0.282
962.0,0.267
963.0,0.3063
964.0,0.2811
965.0,0.3051
966.0,0.3054
967.0,0.3043
968.0,0.4029
969.0,0.4213
970.0,0.3876
971.0,0.4414
972.0,0.4227
973.0,0.3702
974.0,0.3517
975.0,0.3642
976.0,0.347
977.0,0.3926
978.0,0.3739
979.0,0.3909
980.0,0.368
981.0,0.4388
982.0,0.4203
983.0,0.404
984.0,0.4512
985.0,0.4187
986.0,0.4586
987.0,0.4502
988.0,0.4494
989.0,0.4568
990.0,0.4467
991.0,0.4583
992.0,0.4609
993.0,0.4512
994.0,0.4607
995.0,0.46
996.0,0.4581
997.0,0.4587
998.0,0.4566
999.0,0.4549
1000.0,0.4518
1001.0,0.4573
1002.0,0.4452
1003.0,0.4492
1004.0,0.4384
1005.0,0.4221
1006.0,0.4387
1007.0,0.448
1008.0,0.4456
1009.0,0.4434
1010.0,0.4415
1011.0,0.4457
1012.0,0.4419
1013.0,0.4446
1014.0,0.4415
1015.0,0.4386
1016.0,0.4366
1017.0,0.4377
1018.0,0.436
1019.0,0.4269
1020.0,0.4337
1021.0,0.4331
1022.0,0.4298
1023.0,0.4344
1024.0,0.4289
1025.0,0.434
1026.0,0.4322
1027.0,0.4312
1028.0,0.4303
1029.0,0.4253
1030.0,0.4281
1031.0,0.4264
1032.0,0.4251
1033.0,0.4187
1034.0,0.4188
1035.0,0.4201
1036.0,0.4223
1037.0,0.4154
1038.0,0.4172
1039.0,0.417
1040.0,0.4153
1041.0,0.417
1042.0,0.4141
1043.0,0.4128
1044.0,0.4142
1045.0,0.4086
1046.0,0.4041
1047.0,0.4078
1048.0,0.41
1049.0,0.4086
1050.0,0.4067
1051.0,0.4062
1052.0,0.4045
1053.0,0.4013
1054.0,0.4022
1055.0,0.4025
1056.0,0.4011
1057.0,0.3999
1058.0,0.3901
1059.0,0.3905
1060.0,0.39
1061.0,0.3895
1062.0,0.3916
1063.0,0.3878
1064.0,0.3923
1065.0,0.3896
1066.0,0.3818
1067.0,0.3868
1068.0,0.3784
1069.0,0.3667
1070.0,0.3792
1071.0,0.3849
1072.0,0.3806
1073.0,0.3751
1074.0,0.3845
1075.0,0.3658
1076.0,0.3843
1077.0,0.3777
1078.0,0.3707
1079.0,0.378
1080.0,0.3719
1081.0,0.3602
1082.0,0.3655
1083.0,0.3665
1084.0,0.3595
1085.0,0.3727
1086.0,0.3409
1087.0,0.3513
1088.0,0.3663
1089.0,0.3556
1090.0,0.3481
1091.0,0.3652
1092.0,0.3642
1093.0,0.3104
1094.0,0.3334
1095.0,0.3232
1096.0,0.3099
1097.0,0.3557
1098.0,0.3052
1099.0,0.3182
1100.0,0.2965
1101.0,0.3
1102.0,0.287
1103.0,0.2845
1104.0,0.2848
1105.0,0.311
1106.0,0.2407
1107.0,0.2959
1108.0,0.2525
1109.0,0.2527
1110.0,0.2936
1111.0,0.2013
1112.0,0.2506
1113.0,0.1618
1114.0,0.1806
1115.0,0.1498
1116.0,0.1209
1117.0,0.04587
1118.0,0.1311
1119.0,0.0662
1120.0,0.08339
1121.0,0.11
1122.0,0.04726
1123.0,0.07532
1124.0,0.06359
1125.0,0.08268
1126.0,0.02975
1127.0,0.09318
1128.0,0.05679
1129.0,0.06011
1130.0,0.03996
1131.0,0.1742
1132.0,0.1371
1133.0,0.08824
1134.0,0.02333
1135.0,0.0087
1136.0,0.07408
1137.0,0.1716
1138.0,0.1211
1139.0,0.1781
1140.0,0.1498
1141.0,0.1151
1142.0,0.1319
1143.0,0.1862
1144.0,0.06631
1145.0,0.08508
1146.0,0.09177
1147.0,0.03328
1148.0,0.1612
1149.0,0.1295
1150.0,0.07122
1151.0,0.1202
1152.0,0.147
1153.0,0.1426
1154.0,0.08262
1155.0,0.1858
1156.0,0.1678
1157.0,0.1875
1158.0,0.1854
1159.0,0.1993
1160.0,0.1712
1161.0,0.2092
1162.0,0.2104
1163.0,0.281
1164.0,0.2422
1165.0,0.2296
1166.0,0.2272
1167.0,0.2469
1168.0,0.2498
1169.0,0.2554
1170.0,0.2765
1171.0,0.2698
1172.0,0.274
1173.0,0.2759
1174.0,0.1999
1175.0,0.2691
1176.0,0.2943
1177.0,0.2835
1178.0,0.2151
1179.0,0.2966
1180.0,0.2664
1181.0,0.2748
1182.0,0.1921
1183.0,0.2702
1184.0,0.2541
1185.0,0.2459
1186.0,0.289
1187.0,0.2761
1188.0,0.1956
1189.0,0.2574
1190.0,0.2824
1191.0,0.2696
1192.0,0.2862
1193.0,0.2748
1194.0,0.2829
1195.0,0.2685
1196.0,0.2592
1197.0,0.2825
1198.0,0.2592
1199.0,0.2227
1200.0,0.2714
1201.0,0.2625
1202.0,0.2605
1203.0,0.2584
1204.0,0.2272
1205.0,0.2659
1206.0,0.2925
1207.0,0.2601
1208.0,0.2553
1209.0,0.2604
1210.0,0.2707
1211.0,0.2587
1212.0,0.2567
1213.0,0.2834
1214.0,0.2623
1215.0,0.2576
1216.0,0.2824
1217.0,0.2754
1218.0,0.2802
1219.0,0.2769
1220.0,0.2804
1221.0,0.2829
1222.0,0.2758
1223.0,0.2735
1224.0,0.2721
1225.0,0.2811
1226.0,0.2827
1227.0,0.262
1228.0,0.2839
1229.0,0.2828
1230.0,0.2782
1231.0,0.2853
1232.0,0.2836
1233.0,0.2749
1234.0,0.2848
1235.0,0.2832
1236.0,0.2851
1237.0,0.2815
1238.0,0.2842
1239.0,0.2805
1240.0,0.2815
1241.0,0.2804
1242.0,0.2796
1243.0,0.2773
1244.0,0.2794
1245.0,0.2805
1246.0,0.2789
1247.0,0.2779
1248.0,0.2778
1249.0,0.2786
1250.0,0.2769
1251.0,0.2736
1252.0,0.2734
1253.0,0.2715
1254.0,0.2691
1255.0,0.2732
1256.0,0.2662
1257.0,0.2648
1258.0,0.2693
1259.0,0.2605
1260.0,0.2617
1261.0,0.2483
1262.0,0.2415
1263.0,0.242
1264.0,0.2248
1265.0,0.2404
1266.0,0.2322
1267.0,0.2357
1268.0,0.2245
1269.0,0.1457
1270.0,0.235
1271.0,0.2473
1272.0,0.248
1273.0,0.2455
1274.0,0.2461
1275.0,0.2494
1276.0,0.2516
1277.0,0.253
1278.0,0.2573
1279.0,0.2551
1280.0,0.2518
1281.0,0.24
1282.0,0.2309
1283.0,0.2488
1284.0,0.2548
1285.0,0.2564
1286.0,0.2597
1287.0,0.2561
1288.0,0.2559
1289.0,0.2485
1290.0,0.2536
1291.0,0.257
1292.0,0.2429
1293.0,0.2523
1294.0,0.2506
1295.0,0.2498
1296.0,0.2394
1297.0,0.2271
1298.0,0.2431
1299.0,0.2525
1300.0,0.2162
1301.0,0.2223
1302.0,0.2422
1303.0,0.2131
1304.0,0.184
1305.0,0.2374
1306.0,0.2376
1307.0,0.1872
1308.0,0.213
1309.0,0.236
1310.0,0.1837
1311.0,0.2048
1312.0,0.1996
1313.0,0.1961
1314.0,0.1763
1315.0,0.1745
1316.0,0.2019
1317.0,0.1915
1318.0,0.2072
1319.0,0.1646
1320.0,0.1589
1321.0,0.1842
1322.0,0.1864
1323.0,0.1424
1324.0,0.1614
1325.0,0.1991
1326.0,0.1723
1327.0,0.1646
1328.0,0.1426
1329.0,0.1088
1330.0,0.1408
1331.0,0.08696
1332.0,0.08913
1333.0,0.1236
1334.0,0.1038
1335.0,0.1418
1336.0,0.1132
1337.0,0.1006
1338.0,0.1088
1339.0,0.1081
1340.0,0.1046
1341.0,0.1033
1342.0,0.1084
1343.0,0.07578
1344.0,0.04526
1345.0,0.06511
1346.0,0.03384
1347.0,0.03467
1348.0,0.002527
1349.0,0.008781
1350.0,0.008905
1351.0,0.002404
1352.0,0.0007273
1353.0,4.217e-05
1354.0,0.000134
1355.0,1.403e-06
1356.0,2.081e-05
1357.0,3.159e-05
1358.0,1.644e-06
1359.0,2.52e-07
1360.0,8.065e-07
1361.0,1.368e-09
1362.0,4.495e-12
1363.0,1.155e-06
1364.0,4.851e-07
1365.0,1.977e-12
1366.0,4.792e-06
1367.0,1.903e-06
1368.0,2.392e-14
1369.0,1.835e-07
1370.0,9.831e-08
1371.0,6.195e-09
1372.0,1.048e-06
1373.0,1.852e-05
1374.0,7.87e-05
1375.0,0.0001434
1376.0,0.00012
1377.0,5.612e-05
1378.0,0.000527
1379.0,2.368e-05
1380.0,3.602e-05
1381.0,9.971e-07
1382.0,9.672e-07
1383.0,1.568e-08
1384.0,2.145e-07
1385.0,8.352e-07
1386.0,9.123e-07
1387.0,8.607e-05
1388.0,1.714e-06
1389.0,0.000265
1390.0,0.0002282
1391.0,0.0001554
1392.0,1.045e-05
1393.0,5.277e-05
1394.0,3.147e-05
1395.0,2.581e-07
1396.0,1.865e-09
1397.0,2.18e-05
1398.0,0.0005974
1399.0,0.0003784
1400.0,8.983e-10
1401.0,3.226e-09
1402.0,0.0009358
1403.0,0.001202
1404.0,0.00037
1405.0,1.349e-07
1406.0,0.000999
1407.0,8.624e-05
1408.0,0.0008122
1409.0,0.0002911
1410.0,0.000224
1411.0,0.001053
1412.0,0.001378
1413.0,0.013
1414.0,0.0001754
1415.0,8.685e-05
1416.0,0.02044
1417.0,0.006456
1418.0,0.007389
1419.0,0.001159
1420.0,0.004531
1421.0,0.004905
1422.0,0.02661
1423.0,0.005225
1424.0,0.009729
1425.0,0.01442
1426.0,0.01612
1427.0,0.02912
1428.0,0.002395
1429.0,0.02201
1430.0,0.03694
1431.0,0.04044
1432.0,0.001892
1433.0,0.0259
1434.0,0.01326
1435.0,0.01356
1436.0,0.02571
1437.0,0.01969
1438.0,0.008443
1439.0,0.03476
1440.0,0.02605
1441.0,0.02007
1442.0,0.02223
1443.0,0.0276
1444.0,0.0381
1445.0,0.03005
1446.0,0.01358
1447.0,0.02139
1448.0,0.07092
