interpolation:linear
wavelength,value
280.0,1.0500000000000001e-20
280.5,3.147e-19
281.0,1.637e-18
281.5,4.539e-19
282.0,1.506e-18
282.5,4.028e-18
283.0,1.306e-17
283.5,2.137e-17
284.0,3.389e-16
284.5,9.649e-16
285.0,1.86e-15
285.5,9.939e-15
286.0,4.065e-14
286.5,1.84e-13
287.0,5.264e-13
287.5,2.003e-12
288.0,5.325e-12
288.5,1.931e-11
289.0,5.909e-11
289.5,2.006e-10
290.0,6.034e-10
290.5,1.308e-09
291.0,3.001e-09
291.5,9.419e-09
292.0,2.279e-08
292.5,3.61e-08
293.0,9.077e-08
293.5,2.772e-07
294.0,5.139e-07
294.5,6.895e-07
295.0,1.387e-06
295.5,3.792e-06
296.0,7.494e-06
296.5,1.074e-05
297.0,1.484e-05
297.5,4.105e-05
298.0,6.646e-05
298.5,6.831e-05
299.0,0.0001539
299.5,0.0002651
300.0,0.0002983
300.5,0.0004429
301.0,0.0008366
301.5,0.001396
302.0,0.001228
302.5,0.00237
303.0,0.004186
303.5,0.005211
304.0,0.004854
304.5,0.007076
305.0,0.01037
305.5,0.01163
306.0,0.01116
306.5,0.01371
307.0,0.01971
307.5,0.02543
308.0,0.02674
308.5,0.03111
309.0,0.03033
309.5,0.03399
310.0,0.03382
310.5,0.05452
311.0,0.06788
311.5,0.0653
312.0,0.06414
312.5,0.07712
313.0,0.08312
313.5,0.0812
314.0,0.1001
314.5,0.087
315.0,0.1139
315.5,0.09623
316.0,0.08271
316.5,0.1171
317.0,0.1455
317.5,0.152
318.0,0.1175
318.5,0.1432
319.0,0.1683
319.5,0.1393
320.0,0.1687
320.5,0.2072
321.0,0.1813
321.5,0.1736
322.0,0.1885
322.5,0.1638
323.0,0.1612
323.5,0.1958
324.0,0.2282
324.5,0.2328
325.0,0.2024
325.5,0.2578
326.0,0.3143
326.5,0.3127
327.0,0.3124
327.5,0.3027
328.0,0.2719
328.5,0.2828
329.0,0.3357
329.5,0.3801
330.0,0.3842
330.5,0.3096
331.0,0.3162
331.5,0.3198
332.0,0.343
332.5,0.3382
333.0,0.3379
333.5,0.3074
334.0,0.3153
334.5,0.3616
335.0,0.3386
335.5,0.3955
336.0,0.2737
336.5,0.3211
337.0,0.2641
337.5,0.3288
338.0,0.3195
338.5,0.3687
339.0,0.3649
339.5,0.351
340.0,0.4127
340.5,0.3718
341.0,0.3627
341.5,0.3329
342.0,0.3979
342.5,0.3723
343.0,0.4095
343.5,0.3857
344.0,0.285
344.5,0.2879
345.0,0.381
345.5,0.389
346.0,0.3306
346.5,0.3743
347.0,0.4019
347.5,0.325
348.0,0.3705
348.5,0.3703
349.0,0.3435
349.5,0.3402
350.0,0.4208
350.5,0.4439
351.0,0.3966
351.5,0.3856
352.0,0.4141
352.5,0.3231
353.0,0.407
353.5,0.4353
354.0,0.4519
354.5,0.4583
355.0,0.4568
355.5,0.4127
356.0,0.4319
356.5,0.3688
357.0,0.3047
357.5,0.3731
358.0,0.2957
358.5,0.2527
359.0,0.3535
359.5,0.4506
360.0,0.4777
360.5,0.3818
361.0,0.3481
361.5,0.4009
362.0,0.3467
362.5,0.4799
363.0,0.431
363.5,0.3971
364.0,0.4857
364.5,0.4152
365.0,0.4229
365.5,0.5308
366.0,0.5625
366.5,0.5285
367.0,0.5148
367.5,0.5343
368.0,0.4676
368.5,0.4719
369.0,0.5097
369.5,0.5433
370.0,0.5792
370.5,0.4496
371.0,0.4805
371.5,0.6012
372.0,0.3991
372.5,0.4786
373.0,0.4869
373.5,0.3168
374.0,0.4604
374.5,0.3813
375.0,0.3707
375.5,0.5535
376.0,0.4589
376.5,0.4756
377.0,0.5036
377.5,0.5893
378.0,0.6389
378.5,0.6039
379.0,0.4984
379.5,0.4554
380.0,0.4735
380.5,0.5736
381.0,0.5748
381.5,0.4557
382.0,0.4048
382.5,0.3451
383.0,0.3196
383.5,0.3078
384.0,0.3396
384.5,0.4996
385.0,0.4955
385.5,0.4615
386.0,0.3953
386.5,0.5193
387.0,0.4316
387.5,0.4848
388.0,0.4477
388.5,0.4426
389.0,0.4778
389.5,0.5788
390.0,0.5809
390.5,0.5347
391.0,0.6295
391.5,0.6421
392.0,0.5409
392.5,0.4843
393.0,0.2695
393.5,0.1959
394.0,0.3988
394.5,0.507
395.0,0.6188
395.5,0.6286
396.0,0.5451
396.5,0.3187
397.0,0.2392
397.5,0.4865
398.0,0.6814
398.5,0.7044
399.0,0.7628
399.5,0.7604
400.0,0.7897
401.0,0.8015
402.0,0.8458
403.0,0.8036
404.0,0.7914
405.0,0.7914
406.0,0.7787
407.0,0.7662
408.0,0.7963
409.0,0.8524
410.0,0.7449
411.0,0.807
412.0,0.8668
413.0,0.8455
414.0,0.8559
415.0,0.8583
416.0,0.8734
417.0,0.852
418.0,0.8364
419.0,0.8475
420.0,0.8439
421.0,0.8829
422.0,0.8393
423.0,0.8199
424.0,0.8673
425.0,0.8658
426.0,0.8434
427.0,0.8277
428.0,0.8064
429.0,0.7639
430.0,0.6685
431.0,0.6627
432.0,0.8557
433.0,0.8605
434.0,0.7991
435.0,0.8346
436.0,0.9404
437.0,0.9278
438.0,0.8449
439.0,0.874
440.0,0.9019
441.0,0.9346
442.0,1.002
443.0,0.9764
444.0,0.9976
445.0,0.9761
446.0,0.9315
447.0,1.007
448.0,1.023
449.0,1.027
450.0,1.056
451.0,1.095
452.0,1.055
453.0,0.9921
454.0,1.036
455.0,1.042
456.0,1.067
457.0,1.085
458.0,1.048
459.0,1.042
460.0,1.045
461.0,1.069
462.0,1.077
463.0,1.07
464.0,1.052
465.0,1.039
466.0,1.049
467.0,1.03
468.0,1.042
469.0,1.048
470.0,1.014
471.0,1.013
472.0,1.067
473.0,1.053
474.0,1.055
475.0,1.064
476.0,1.033
477.0,1.036
478.0,1.064
479.0,1.058
480.0,1.06
481.0,1.079
482.0,1.085
483.0,1.072
484.0,1.05
485.0,0.9999
486.0,0.8741
487.0,0.916
488.0,1.005
489.0,1.008
490.0,1.061
491.0,1.042
492.0,0.9842
493.0,1.016
494.0,1.027
495.0,1.035
496.0,1.042
497.0,1.058
498.0,1.008
499.0,1.021
500.0,0.9917
501.0,0.9736
502.0,0.9601
503.0,0.9993
504.0,0.9745
505.0,1.009
506.0,1.042
507.0,0.9911
508.0,0.96
509.0,0.9868
510.0,0.9815
511.0,1.008
512.0,1.019
513.0,0.9641
514.0,0.9575
515.0,0.9479
516.0,0.9456
517.0,0.8402
518.0,0.8834
519.0,0.9265
520.0,0.9603
521.0,0.9694
522.0,0.9703
523.0,0.9529
524.0,0.9871
525.0,0.9988
526.0,0.9542
527.0,0.8992
528.0,0.9511
529.0,1.003
530.0,0.9883
531.0,1.003
532.0,0.9685
533.0,0.9401
534.0,0.9679
535.0,0.989
536.0,0.998
537.0,0.9586
538.0,0.9755
539.0,0.9673
540.0,0.9274
541.0,0.9337
542.0,0.963
543.0,0.9528
544.0,0.9694
545.0,0.9664
546.0,0.9707
547.0,0.9702
548.0,0.9586
549.0,0.9614
550.0,0.9728
551.0,0.961
552.0,0.9677
553.0,0.9504
554.0,0.9732
555.0,0.9751
556.0,0.9625
557.0,0.9326
558.0,0.9257
559.0,0.9084
560.0,0.9198
561.0,0.9318
562.0,0.9251
563.0,0.9505
564.0,0.9247
565.0,0.9168
566.0,0.9034
567.0,0.9206
568.0,0.9126
569.0,0.8913
570.0,0.891
571.0,0.8855
572.0,0.9071
573.0,0.9168
574.0,0.914
575.0,0.897
576.0,0.8888
577.0,0.8984
578.0,0.8848
579.0,0.8881
580.0,0.9048
581.0,0.9092
582.0,0.9262
583.0,0.9283
584.0,0.9363
585.0,0.9133
586.0,0.8946
587.0,0.9143
588.0,0.8926
589.0,0.7918
590.0,0.828
591.0,0.8755
592.0,0.8648
593.0,0.8772
594.0,0.8713
595.0,0.8501
596.0,0.8828
597.0,0.8735
598.0,0.871
599.0,0.8716
600.0,0.8727
601.0,0.8654
602.0,0.8595
603.0,0.8737
604.0,0.8881
605.0,0.8835
606.0,0.8798
607.0,0.8884
608.0,0.8785
609.0,0.8799
610.0,0.8736
611.0,0.8781
612.0,0.8755
613.0,0.8644
614.0,0.8525
615.0,0.871
616.0,0.8423
617.0,0.8405
618.0,0.8729
619.0,0.864
620.0,0.8695
621.0,0.8704
622.0,0.8602
623.0,0.8472
624.0,0.8326
625.0,0.8307
626.0,0.8431
627.0,0.8527
628.0,0.7983
629.0,0.8332
630.0,0.8141
631.0,0.8317
632.0,0.8217
633.0,0.8464
634.0,0.8379
635.0,0.8509
636.0,0.8395
637.0,0.8531
638.0,0.8612
639.0,0.8514
640.0,0.8431
641.0,0.8425
642.0,0.8386
643.0,0.8499
644.0,0.847
645.0,0.8484
646.0,0.8289
647.0,0.8196
648.0,0.8204
649.0,0.8046
650.0,0.8078
651.0,0.8426
652.0,0.8083
653.0,0.8314
654.0,0.8221
655.0,0.7919
656.0,0.7016
657.0,0.7204
658.0,0.8071
659.0,0.8128
660.0,0.8162
661.0,0.8219
662.0,0.8237
663.0,0.8073
664.0,0.8167
665.0,0.8172
666.0,0.8178
667.0,0.8169
668.0,0.8172
669.0,0.8298
670.0,0.8262
671.0,0.826
672.0,0.8189
673.0,0.8312
674.0,0.8281
675.0,0.8205
676.0,0.8261
677.0,0.8179
678.0,0.8202
679.0,0.8069
680.0,0.8133
681.0,0.808
682.0,0.8069
683.0,0.8054
684.0,0.8014
685.0,0.8082
686.0,0.8034
687.0,0.542
688.0,0.6311
689.0,0.6333
690.0,0.6628
691.0,0.6961
692.0,0.7202
693.0,0.7144
694.0,0.7085
695.0,0.7367
696.0,0.7377
697.0,0.7816
698.0,0.7695
699.0,0.752
700.0,0.7429
701.0,0.7356
702.0,0.7404
703.0,0.7417
704.0,0.765
705.0,0.7661
706.0,0.7652
707.0,0.7657
708.0,0.7674
709.0,0.7682
710.0,0.7683
711.0,0.7672
712.0,0.7647
713.0,0.7571
714.0,0.76
715.0,0.7363
716.0,0.7368
717.0,0.6422
718.0,0.5903
719.0,0.541
720.0,0.567
721.0,0.624
722.0,0.7118
723.0,0.6637
724.0,0.5992
725.0,0.59
726.0,0.6175
727.0,0.6255
728.0,0.5887
729.0,0.6096
730.0,0.6451
731.0,0.6175
732.0,0.6594
733.0,0.6969
734.0,0.7131
735.0,0.6985
736.0,0.6976
737.0,0.7004
738.0,0.7104
739.0,0.6964
740.0,0.7143
741.0,0.7071
742.0,0.7076
743.0,0.7256
744.0,0.7235
745.0,0.7235
746.0,0.7268
747.0,0.7284
748.0,0.7269
749.0,0.7186
750.0,0.7182
751.0,0.7109
752.0,0.7139
753.0,0.7175
754.0,0.7191
755.0,0.7151
756.0,0.7147
757.0,0.7158
758.0,0.7069
759.0,0.693
760.0,0.1223
761.0,0.06544
762.0,0.3619
763.0,0.1846
764.0,0.2743
765.0,0.362
766.0,0.4411
767.0,0.5534
768.0,0.636
769.0,0.6488
770.0,0.6702
771.0,0.6753
772.0,0.6766
773.0,0.6813
774.0,0.678
775.0,0.6728
776.0,0.681
777.0,0.672
778.0,0.668
779.0,0.6685
780.0,0.6648
781.0,0.6654
782.0,0.6696
783.0,0.6579
784.0,0.6611
785.0,0.6562
786.0,0.6635
787.0,0.6522
788.0,0.6442
789.0,0.644
790.0,0.6273
791.0,0.6323
792.0,0.6276
793.0,0.6175
794.0,0.6276
795.0,0.6383
796.0,0.6193
797.0,0.6201
798.0,0.6376
799.0,0.6336
800.0,0.6228
801.0,0.621
802.0,0.6192
803.0,0.6145
804.0,0.6153
805.0,0.6132
806.0,0.6301
807.0,0.6226
808.0,0.6231
809.0,0.6116
810.0,0.6068
811.0,0.6078
812.0,0.5908
813.0,0.5788
814.0,0.5105
815.0,0.5073
816.0,0.4723
817.0,0.4808
818.0,0.4631
819.0,0.5167
820.0,0.487
821.0,0.5678
822.0,0.5518
823.0,0.3776
824.0,0.5362
825.0,0.5579
826.0,0.5372
827.0,0.5665
828.0,0.4816
829.0,0.5339
830.0,0.527
831.0,0.5288
832.0,0.5128
833.0,0.545
834.0,0.5261
835.0,0.5771
836.0,0.5529
837.0,0.5787
838.0,0.5609
839.0,0.5699
840.0,0.5823
841.0,0.5741
842.0,0.5752
843.0,0.5748
844.0,0.5669
845.0,0.5859
846.0,0.5833
847.0,0.5724
848.0,0.5689
849.0,0.5528
850.0,0.5296
851.0,0.5607
852.0,0.5568
853.0,0.5359
854.0,0.4627
855.0,0.5084
856.0,0.5555
857.0,0.5679
858.0,0.5637
859.0,0.5642
860.0,0.5652
861.0,0.5621
862.0,0.5709
863.0,0.5844
864.0,0.5552
865.0,0.5504
866.0,0.4949
867.0,0.5164
868.0,0.562
869.0,0.5503
870.0,0.566
871.0,0.5583
872.0,0.5563
873.0,0.5552
874.0,0.5486
875.0,0.5375
876.0,0.5431
877.0,0.5485
878.0,0.5545
879.0,0.546
880.0,0.5343
881.0,0.5263
882.0,0.5376
883.0,0.5393
884.0,0.5369
885.0,0.5409
886.0,0.5156
887.0,0.521
888.0,0.5287
889.0,0.5347
890.0,0.5302
891.0,0.5293
892.0,0.5141
893.0,0.498
894.0,0.4805
895.0,0.4541
896.0,0.4278
897.0,0.3676
898.0,0.4011
899.0,0.3051
900.0,0.4106
901.0,0.3198
902.0,0.3752
903.0,0.379
904.0,0.4769
905.0,0.4605
906.0,0.431
907.0,0.3502
908.0,0.3572
909.0,0.3869
910.0,0.3422
911.0,0.3647
912.0,0.3813
913.0,0.3473
914.0,0.3443
915.0,0.3732
916.0,0.3159
917.0,0.401
918.0,0.3239
919.0,0.4083
920.0,0.4125
921.0,0.429
922.0,0.3835
923.0,0.4144
924.0,0.393
925.0,0.3845
926.0,0.3886
927.0,0.4352
928.0,0.3189
929.0,0.2909
930.0,0.2283
931.0,0.2163
932.0,0.1554
933.0,0.126
934.0,0.06857
935.0,0.1292
936.0,0.08031
937.0,0.08135
938.0,0.1002
939.0,0.2096
940.0,0.2525
941.0,0.1901
942.0,0.2204
943.0,0.1445
944.0,0.1526
945.0,0.1961
946.0,0.09922
947.0,0.1968
948.0,0.1445
949.0,0.2641
950.0,0.07243
951.0,0.2601
952.0,0.1389
953.0,0.18
954.0,0.2213
955.0,0.1821
956.0,0.1771
957.0,0.1391
958.0,0.2519
959.0,0.1994
960.0,0.2235
961.0,0.2514
962.0,0.2378
963.0,0.2746
964.0,0.2514
965.0,0.2737
966.0,0.2736
967.0,0.2724
968.0,0.3669
969.0,0.3831
970.0,0.3516
971.0,0.4032
972.0,0.3855
973.0,0.3349
974.0,0.3177
975.0,0.3301
976.0,0.3131
977.0,0.3571
978.0,0.3389
979.0,0.3552
980.0,0.3338
981.0,0.4009
982.0,0.383
983.0,0.3676
984.0,0.4134
985.0,0.3816
986.0,0.4208
987.0,0.4124
988.0,0.4116
989.0,0.4197
990.0,0.4092
991.0,0.4209
992.0,0.4234
993.0,0.4137
994.0,0.4233
995.0,0.4228
996.0,0.4209
997.0,0.4215
998.0,0.4195
999.0,0.418
1000.0,0.415
1001.0,0.4202
1002.0,0.4084
1003.0,0.4128
1004.0,0.4026
1005.0,0.388
1006.0,0.4031
1007.0,0.4116
1008.0,0.4094
1009.0,0.4071
1010.0,0.4054
1011.0,0.4095
1012.0,0.4059
1013.0,0.4086
1014.0,0.4057
1015.0,0.403
1016.0,0.4012
1017.0,0.4022
1018.0,0.4007
1019.0,0.3921
1020.0,0.3986
1021.0,0.3981
1022.0,0.3949
1023.0,0.3991
1024.0,0.3938
1025.0,0.3989
1026.0,0.3971
1027.0,0.3962
1028.0,0.3954
1029.0,0.3907
1030.0,0.3934
1031.0,0.3918
1032.0,0.3907
1033.0,0.3848
1034.0,0.3848
1035.0,0.386
1036.0,0.388
1037.0,0.3817
1038.0,0.3834
1039.0,0.3832
1040.0,0.3816
1041.0,0.3831
1042.0,0.3805
1043.0,0.3793
1044.0,0.3806
1045.0,0.3754
1046.0,0.3713
1047.0,0.3746
1048.0,0.3766
1049.0,0.3753
1050.0,0.3735
1051.0,0.373
1052.0,0.3715
1053.0,0.3685
1054.0,0.3693
1055.0,0.3695
1056.0,0.3682
1057.0,0.367
1058.0,0.358
1059.0,0.3584
1060.0,0.3578
1061.0,0.3574
1062.0,0.3592
1063.0,0.3557
1064.0,0.3599
1065.0,0.3573
1066.0,0.3502
1067.0,0.3547
1068.0,0.347
1069.0,0.3363
1070.0,0.3477
1071.0,0.3532
1072.0,0.349
1073.0,0.344
1074.0,0.353
1075.0,0.335
1076.0,0.3527
1077.0,0.3462
1078.0,0.3396
1079.0,0.3471
1080.0,0.3409
1081.0,0.3298
1082.0,0.3354
1083.0,0.3364
1084.0,0.3289
1085.0,0.3417
1086.0,0.3114
1087.0,0.3217
1088.0,0.336
1089.0,0.3255
1090.0,0.3182
1091.0,0.3349
1092.0,0.3341
1093.0,0.2825
1094.0,0.3056
1095.0,0.2945
1096.0,0.2817
1097.0,0.3263
1098.0,0.2772
1099.0,0.2893
1100.0,0.2686
1101.0,0.2721
1102.0,0.2597
1103.0,0.257
1104.0,0.2574
1105.0,0.2826
1106.0,0.215
1107.0,0.2682
1108.0,0.2266
1109.0,0.2272
1110.0,0.2657
1111.0,0.1793
1112.0,0.2255
1113.0,0.1425
1114.0,0.1594
1115.0,0.1321
1116.0,0.1048
1117.0,0.03776
1118.0,0.1143
1119.0,0.05609
1120.0,0.07056
1121.0,0.09403
1122.0,0.03903
1123.0,0.06379
1124.0,0.05383
1125.0,0.07038
1126.0,0.02396
1127.0,0.07944
1128.0,0.04693
1129.0,0.04989
1130.0,0.03259
1131.0,0.1521
1132.0,0.119
1133.0,0.07466
1134.0,0.01863
1135.0,0.007007
1136.0,0.06201
1137.0,0.1492
1138.0,0.1049
1139.0,0.1579
1140.0,0.1314
1141.0,0.09971
1142.0,0.115
1143.0,0.1639
1144.0,0.05653
1145.0,0.07203
1146.0,0.07768
1147.0,0.02675
1148.0,0.1418
1149.0,0.1128
1150.0,0.06088
1151.0,0.1041
1152.0,0.1286
1153.0,0.1258
1154.0,0.06972
1155.0,0.1647
1156.0,0.1481
1157.0,0.1666
1158.0,0.1647
1159.0,0.178
1160.0,0.1518
1161.0,0.1876
1162.0,0.1885
1163.0,0.2554
1164.0,0.2188
1165.0,0.2062
1166.0,0.2049
1167.0,0.2233
1168.0,0.2257
1169.0,0.2311
1170.0,0.2513
1171.0,0.2451
1172.0,0.2496
1173.0,0.2508
1174.0,0.1789
1175.0,0.245
1176.0,0.2694
1177.0,0.2586
1178.0,0.1942
1179.0,0.2716
1180.0,0.2424
1181.0,0.2501
1182.0,0.1726
1183.0,0.2463
1184.0,0.2308
1185.0,0.2228
1186.0,0.264
1187.0,0.2515
1188.0,0.1755
1189.0,0.2343
1190.0,0.258
1191.0,0.2451
1192.0,0.2616
1193.0,0.2508
1194.0,0.2584
1195.0,0.2445
1196.0,0.2355
1197.0,0.2585
1198.0,0.2366
1199.0,0.2014
1200.0,0.2476
1201.0,0.2389
1202.0,0.2375
1203.0,0.2354
1204.0,0.206
1205.0,0.2429
1206.0,0.2682
1207.0,0.2369
1208.0,0.2331
1209.0,0.2378
1210.0,0.2477
1211.0,0.236
1212.0,0.2333
1213.0,0.2594
1214.0,0.2388
1215.0,0.2343
1216.0,0.2586
1217.0,0.2518
1218.0,0.2565
1219.0,0.2534
1220.0,0.2567
1221.0,0.2593
1222.0,0.2526
1223.0,0.2502
1224.0,0.2487
1225.0,0.2576
1226.0,0.2593
1227.0,0.2394
1228.0,0.2606
1229.0,0.2593
1230.0,0.2549
1231.0,0.2621
1232.0,0.2605
1233.0,0.2517
1234.0,0.2618
1235.0,0.2602
1236.0,0.262
1237.0,0.2584
1238.0,0.2612
1239.0,0.2578
1240.0,0.2588
1241.0,0.2576
1242.0,0.257
1243.0,0.2549
1244.0,0.2567
1245.0,0.2578
1246.0,0.2563
1247.0,0.2553
1248.0,0.2552
1249.0,0.256
1250.0,0.2544
1251.0,0.2512
1252.0,0.2512
1253.0,0.2492
1254.0,0.2468
1255.0,0.251
1256.0,0.244
1257.0,0.2427
1258.0,0.2472
1259.0,0.2384
1260.0,0.2396
1261.0,0.2263
1262.0,0.2196
1263.0,0.22
1264.0,0.2033
1265.0,0.2186
1266.0,0.2105
1267.0,0.2141
1268.0,0.2032
1269.0,0.127
1270.0,0.2134
1271.0,0.2255
1272.0,0.2263
1273.0,0.2239
1274.0,0.2246
1275.0,0.2278
1276.0,0.2299
1277.0,0.2314
1278.0,0.2358
1279.0,0.2337
1280.0,0.2307
1281.0,0.2201
1282.0,0.212
1283.0,0.2284
1284.0,0.2338
1285.0,0.2354
1286.0,0.2385
1287.0,0.2349
1288.0,0.2348
1289.0,0.2275
1290.0,0.2328
1291.0,0.236
1292.0,0.2219
1293.0,0.2315
1294.0,0.2298
1295.0,0.2288
1296.0,0.2186
1297.0,0.2068
1298.0,0.2224
1299.0,0.2317
1300.0,0.1965
1301.0,0.2025
1302.0,0.2217
1303.0,0.1939
1304.0,0.1656
1305.0,0.2172
1306.0,0.2172
1307.0,0.1691
1308.0,0.1941
1309.0,0.2156
1310.0,0.1659
1311.0,0.1862
1312.0,0.1812
1313.0,0.1777
1314.0,0.1592
1315.0,0.1571
1316.0,0.1833
1317.0,0.1736
1318.0,0.1886
1319.0,0.1476
1320.0,0.143
1321.0,0.1665
1322.0,0.1682
1323.0,0.1267
1324.0,0.1448
1325.0,0.1807
1326.0,0.1551
1327.0,0.148
1328.0,0.1276
1329.0,0.09586
1330.0,0.1248
1331.0,0.07526
1332.0,0.07774
1333.0,0.1082
1334.0,0.09171
1335.0,0.1262
1336.0,0.09977
1337.0,0.08818
1338.0,0.09543
1339.0,0.09502
1340.0,0.09245
1341.0,0.0902
1342.0,0.09475
1343.0,0.06395
1344.0,0.03831
1345.0,0.05527
1346.0,0.02729
1347.0,0.02772
1348.0,0.001784
1349.0,0.006427
1350.0,0.006688
1351.0,0.001615
1352.0,0.0004337
1353.0,2.203e-05
1354.0,7.619e-05
1355.0,6.091e-07
1356.0,1.076e-05
1357.0,1.64e-05
1358.0,7.217e-07
1359.0,9.05e-08
1360.0,3.296e-07
1361.0,3.639e-10
1362.0,9.916e-13
1363.0,4.461e-07
1364.0,1.846e-07
1365.0,3.462e-13
1366.0,1.954e-06
1367.0,8.012e-07
1368.0,2.651e-15
1369.0,6.901e-08
1370.0,3.398e-08
1371.0,1.924e-09
1372.0,4.409e-07
1373.0,8.955e-06
1374.0,4.18e-05
1375.0,7.602e-05
1376.0,6.858e-05
1377.0,3.139e-05
1378.0,0.0003083
1379.0,1.319e-05
1380.0,1.897e-05
1381.0,4.945e-07
1382.0,3.975e-07
1383.0,5.942e-09
1384.0,7.8e-08
1385.0,3.772e-07
1386.0,3.537e-07
1387.0,4.332e-05
1388.0,8.544e-07
1389.0,0.0001477
1390.0,0.0001271
1391.0,8.471e-05
1392.0,5.5e-06
1393.0,2.928e-05
1394.0,1.505e-05
1395.0,1.101e-07
1396.0,5.256e-10
1397.0,1.164e-05
1398.0,0.0003463
1399.0,0.0002197
1400.0,2.264e-10
1401.0,9.473e-10
1402.0,0.0006167
1403.0,0.000774
1404.0,0.0002357
1405.0,5.352e-08
1406.0,0.0006118
1407.0,5.413e-05
1408.0,0.0005007
1409.0,0.0001669
1410.0,0.0001343
1411.0,0.0006809
1412.0,0.0009225
1413.0,0.009665
1414.0,0.0001061
1415.0,5.072e-05
1416.0,0.01615
1417.0,0.00477
1418.0,0.005414
1419.0,0.000835
1420.0,0.003308
1421.0,0.003579
1422.0,0.02111
1423.0,0.004057
1424.0,0.00764
1425.0,0.01119
1426.0,0.01285
1427.0,0.024
1428.0,0.001674
1429.0,0.01776
1430.0,0.03076
1431.0,0.03392
1432.0,0.001315
1433.0,0.02139
1434.0,0.01079
1435.0,0.01046
1436.0,0.02069
1437.0,0.01586
1438.0,0.006557
1439.0,0.02837
1440.0,0.02124
1441.0,0.01591
