interpolation:linear
wavelength,value
280.0,3.519e-21
280.5,1.097e-19
281.0,5.779e-19
281.5,3.731e-19
282.0,1.105e-18
282.5,2.915e-18
283.0,9.439e-18
283.5,1.546e-17
284.0,2.51e-16
284.5,7.233e-16
285.0,1.622e-15
285.5,7.953e-15
286.0,3.187e-14
286.5,1.408e-13
287.0,3.984e-13
287.5,1.506e-12
288.0,3.932e-12
288.5,1.324e-11
289.0,3.798e-11
289.5,1.213e-10
290.0,3.486e-10
290.5,7.283e-10
291.0,1.6e-09
291.5,4.815e-09
292.0,1.059e-08
292.5,1.608e-08
293.0,3.81e-08
293.5,1.064e-07
294.0,1.838e-07
294.5,2.38e-07
295.0,4.449e-07
295.5,1.191e-06
296.0,2.387e-06
296.5,3.48e-06
297.0,4.887e-06
297.5,1.392e-05
298.0,2.318e-05
298.5,2.44e-05
299.0,5.637e-05
299.5,0.000102
300.0,0.0001183
300.5,0.0001816
301.0,0.0003647
301.5,0.000651
302.0,0.0005969
302.5,0.001175
303.0,0.00213
303.5,0.002697
304.0,0.002544
304.5,0.003829
305.0,0.005869
305.5,0.006763
306.0,0.006562
306.5,0.0082
307.0,0.01225
307.5,0.01639
308.0,0.01733
308.5,0.02052
309.0,0.02019
309.5,0.02315
310.0,0.02328
310.5,0.03772
311.0,0.04738
311.5,0.04576
312.0,0.04581
312.5,0.05578
313.0,0.06052
313.5,0.05877
314.0,0.07353
314.5,0.06524
315.0,0.08575
315.5,0.07174
316.0,0.06267
316.5,0.09001
317.0,0.1118
317.5,0.1163
318.0,0.09077
318.5,0.1127
319.0,0.1337
319.5,0.1091
320.0,0.1318
320.5,0.1649
321.0,0.1467
321.5,0.1407
322.0,0.1501
322.5,0.1306
323.0,0.13
323.5,0.1597
324.0,0.1864
324.5,0.1893
325.0,0.1637
325.5,0.2104
326.0,0.2572
326.5,0.2575
327.0,0.2567
327.5,0.2481
328.0,0.2211
328.5,0.2322
329.0,0.2778
329.5,0.3153
330.0,0.3182
330.5,0.2549
331.0,0.2599
331.5,0.264
332.0,0.285
332.5,0.2818
333.0,0.2811
333.5,0.2547
334.0,0.261
334.5,0.301
335.0,0.2827
335.5,0.3303
336.0,0.2286
336.5,0.2678
337.0,0.2198
337.5,0.2735
338.0,0.2669
338.5,0.3082
339.0,0.3051
339.5,0.2935
340.0,0.345
340.5,0.3111
341.0,0.3034
341.5,0.2786
342.0,0.3331
342.5,0.3117
343.0,0.3429
343.5,0.3229
344.0,0.2387
344.5,0.2411
345.0,0.3192
345.5,0.326
346.0,0.2771
346.5,0.3139
347.0,0.3371
347.5,0.2726
348.0,0.3108
348.5,0.3108
349.0,0.2884
349.5,0.2856
350.0,0.3534
350.5,0.3728
351.0,0.3331
351.5,0.3238
352.0,0.3479
352.5,0.2715
353.0,0.3421
353.5,0.3659
354.0,0.38
354.5,0.3854
355.0,0.3842
355.5,0.3472
356.0,0.3634
356.5,0.3103
357.0,0.2565
357.5,0.314
358.0,0.2489
358.5,0.2128
359.0,0.2976
359.5,0.3794
360.0,0.4022
360.5,0.3216
361.0,0.2932
361.5,0.3378
362.0,0.2922
362.5,0.4046
363.0,0.3635
363.5,0.3349
364.0,0.4098
364.5,0.3503
365.0,0.3569
365.5,0.448
366.0,0.4749
366.5,0.4463
367.0,0.4348
367.5,0.4513
368.0,0.395
368.5,0.3987
369.0,0.4307
369.5,0.4592
370.0,0.4897
370.5,0.3801
371.0,0.4063
371.5,0.5084
372.0,0.3375
372.5,0.4048
373.0,0.4119
373.5,0.2681
374.0,0.3897
374.5,0.3228
375.0,0.3139
375.5,0.4687
376.0,0.3886
376.5,0.4028
377.0,0.4266
377.5,0.4992
378.0,0.5413
378.5,0.5117
379.0,0.4223
379.5,0.3858
380.0,0.4013
380.5,0.4862
381.0,0.4873
381.5,0.3865
382.0,0.3433
382.5,0.2928
383.0,0.2711
383.5,0.2612
384.0,0.2882
384.5,0.4241
385.0,0.4206
385.5,0.3919
386.0,0.3357
386.5,0.4411
387.0,0.3666
387.5,0.4119
388.0,0.3804
388.5,0.3761
389.0,0.4061
389.5,0.492
390.0,0.4939
390.5,0.4547
391.0,0.5353
391.5,0.5461
392.0,0.4601
392.5,0.412
393.0,0.2293
393.5,0.1667
394.0,0.3394
394.5,0.4316
395.0,0.5268
395.5,0.5352
396.0,0.4641
396.5,0.2714
397.0,0.2037
397.5,0.4145
398.0,0.5805
398.5,0.6001
399.0,0.6501
399.5,0.6481
400.0,0.673
401.0,0.6824
402.0,0.7203
403.0,0.6846
404.0,0.6743
405.0,0.6744
406.0,0.6638
407.0,0.6534
408.0,0.6791
409.0,0.7271
410.0,0.6356
411.0,0.6887
412.0,0.7401
413.0,0.7219
414.0,0.731
415.0,0.7332
416.0,0.7464
417.0,0.7282
418.0,0.715
419.0,0.7246
420.0,0.7217
421.0,0.7552
422.0,0.718
423.0,0.7016
424.0,0.7422
425.0,0.7411
426.0,0.7222
427.0,0.7089
428.0,0.6907
429.0,0.6545
430.0,0.573
431.0,0.568
432.0,0.7336
433.0,0.7378
434.0,0.6852
435.0,0.7157
436.0,0.8067
437.0,0.7962
438.0,0.7252
439.0,0.75
440.0,0.7741
441.0,0.8024
442.0,0.8607
443.0,0.8383
444.0,0.8568
445.0,0.8383
446.0,0.8003
447.0,0.8654
448.0,0.8789
449.0,0.8827
450.0,0.9076
451.0,0.9414
452.0,0.9072
453.0,0.8534
454.0,0.8911
455.0,0.8967
456.0,0.9181
457.0,0.9335
458.0,0.9016
459.0,0.8971
460.0,0.8995
461.0,0.9203
462.0,0.9276
463.0,0.9212
464.0,0.9063
465.0,0.895
466.0,0.9039
467.0,0.8874
468.0,0.8978
469.0,0.9026
470.0,0.8738
471.0,0.8728
472.0,0.9197
473.0,0.9078
474.0,0.909
475.0,0.9167
476.0,0.8891
477.0,0.8915
478.0,0.9163
479.0,0.9109
480.0,0.9128
481.0,0.93
482.0,0.935
483.0,0.9239
484.0,0.9051
485.0,0.8625
486.0,0.7541
487.0,0.7904
488.0,0.8672
489.0,0.8698
490.0,0.9152
491.0,0.8995
492.0,0.8495
493.0,0.8773
494.0,0.8862
495.0,0.8937
496.0,0.8993
497.0,0.9132
498.0,0.8705
499.0,0.8816
500.0,0.8559
501.0,0.8401
502.0,0.8281
503.0,0.8616
504.0,0.8391
505.0,0.8697
506.0,0.8977
507.0,0.8543
508.0,0.8279
509.0,0.8513
510.0,0.8469
511.0,0.8697
512.0,0.8792
513.0,0.8322
514.0,0.8266
515.0,0.8184
516.0,0.8164
517.0,0.7254
518.0,0.7626
519.0,0.7999
520.0,0.829
521.0,0.8369
522.0,0.8375
523.0,0.8224
524.0,0.8518
525.0,0.8616
526.0,0.8231
527.0,0.7755
528.0,0.82
529.0,0.8643
530.0,0.8518
531.0,0.8644
532.0,0.8347
533.0,0.8102
534.0,0.8343
535.0,0.8525
536.0,0.8604
537.0,0.8266
538.0,0.8412
539.0,0.8341
540.0,0.7997
541.0,0.8048
542.0,0.8299
543.0,0.8213
544.0,0.8354
545.0,0.8329
546.0,0.8364
547.0,0.8361
548.0,0.8262
549.0,0.8288
550.0,0.8386
551.0,0.8285
552.0,0.8342
553.0,0.8193
554.0,0.8389
555.0,0.8405
556.0,0.8296
557.0,0.8037
558.0,0.7976
559.0,0.7826
560.0,0.7923
561.0,0.8024
562.0,0.7965
563.0,0.8181
564.0,0.7957
565.0,0.7888
566.0,0.7771
567.0,0.7917
568.0,0.7843
569.0,0.7649
570.0,0.7648
571.0,0.7604
572.0,0.7782
573.0,0.7864
574.0,0.7838
575.0,0.769
576.0,0.762
577.0,0.7704
578.0,0.759
579.0,0.7623
580.0,0.7774
581.0,0.7817
582.0,0.7969
583.0,0.7991
584.0,0.8062
585.0,0.7866
586.0,0.7705
587.0,0.7872
588.0,0.7671
589.0,0.6779
590.0,0.7091
591.0,0.7514
592.0,0.7413
593.0,0.753
594.0,0.7475
595.0,0.7284
596.0,0.7585
597.0,0.75
598.0,0.7485
599.0,0.7493
600.0,0.7508
601.0,0.745
602.0,0.7399
603.0,0.7523
604.0,0.7648
605.0,0.761
606.0,0.758
607.0,0.7657
608.0,0.7573
609.0,0.7588
610.0,0.7535
611.0,0.7575
612.0,0.7554
613.0,0.746
614.0,0.7359
615.0,0.7521
616.0,0.7274
617.0,0.726
618.0,0.754
619.0,0.7464
620.0,0.7511
621.0,0.7517
622.0,0.7428
623.0,0.7314
624.0,0.719
625.0,0.7174
626.0,0.728
627.0,0.7358
628.0,0.6832
629.0,0.717
630.0,0.7004
631.0,0.7175
632.0,0.7092
633.0,0.7313
634.0,0.7246
635.0,0.7361
636.0,0.7266
637.0,0.7387
638.0,0.7461
639.0,0.7379
640.0,0.7309
641.0,0.7306
642.0,0.7274
643.0,0.7372
644.0,0.735
645.0,0.7361
646.0,0.7185
647.0,0.7089
648.0,0.7095
649.0,0.6956
650.0,0.7004
651.0,0.731
652.0,0.6991
653.0,0.7214
654.0,0.7135
655.0,0.6862
656.0,0.6087
657.0,0.6251
658.0,0.701
659.0,0.7062
660.0,0.7093
661.0,0.7143
662.0,0.7154
663.0,0.7014
664.0,0.7101
665.0,0.711
666.0,0.7117
667.0,0.7112
668.0,0.7116
669.0,0.7227
670.0,0.7197
671.0,0.7196
672.0,0.7135
673.0,0.7243
674.0,0.7217
675.0,0.7152
676.0,0.7201
677.0,0.713
678.0,0.7151
679.0,0.7036
680.0,0.7093
681.0,0.7046
682.0,0.7037
683.0,0.7024
684.0,0.6989
685.0,0.7049
686.0,0.7007
687.0,0.448
688.0,0.5331
689.0,0.5353
690.0,0.5642
691.0,0.597
692.0,0.6212
693.0,0.6159
694.0,0.6108
695.0,0.6383
696.0,0.6392
697.0,0.6809
698.0,0.6703
699.0,0.6526
700.0,0.6446
701.0,0.6375
702.0,0.6425
703.0,0.6438
704.0,0.6654
705.0,0.6664
706.0,0.6662
707.0,0.6669
708.0,0.6683
709.0,0.6699
710.0,0.6695
711.0,0.6689
712.0,0.6672
713.0,0.6601
714.0,0.6627
715.0,0.6411
716.0,0.6413
717.0,0.55
718.0,0.5042
719.0,0.4613
720.0,0.4827
721.0,0.5366
722.0,0.618
723.0,0.5733
724.0,0.514
725.0,0.5049
726.0,0.5289
727.0,0.538
728.0,0.5034
729.0,0.5245
730.0,0.5548
731.0,0.5302
732.0,0.5695
733.0,0.6051
734.0,0.6201
735.0,0.6069
736.0,0.6061
737.0,0.6085
738.0,0.6194
739.0,0.6072
740.0,0.6235
741.0,0.6176
742.0,0.6185
743.0,0.6343
744.0,0.6327
745.0,0.633
746.0,0.6359
747.0,0.6373
748.0,0.636
749.0,0.6287
750.0,0.6284
751.0,0.622
752.0,0.6247
753.0,0.6279
754.0,0.6293
755.0,0.6257
756.0,0.6255
757.0,0.6264
758.0,0.6186
759.0,0.605
760.0,0.08472
761.0,0.04171
762.0,0.2905
763.0,0.1351
764.0,0.2117
765.0,0.2905
766.0,0.3655
767.0,0.4705
768.0,0.5506
769.0,0.5639
770.0,0.5851
771.0,0.5907
772.0,0.5922
773.0,0.5964
774.0,0.5936
775.0,0.5891
776.0,0.5963
777.0,0.5884
778.0,0.5849
779.0,0.5853
780.0,0.5821
781.0,0.5827
782.0,0.5864
783.0,0.5762
784.0,0.579
785.0,0.5746
786.0,0.5809
787.0,0.57
788.0,0.5625
789.0,0.5622
790.0,0.5461
791.0,0.5519
792.0,0.548
793.0,0.539
794.0,0.5494
795.0,0.5584
796.0,0.5397
797.0,0.5403
798.0,0.5576
799.0,0.5537
800.0,0.5437
801.0,0.5417
802.0,0.5401
803.0,0.5358
804.0,0.5367
805.0,0.5355
806.0,0.5513
807.0,0.5445
808.0,0.545
809.0,0.5342
810.0,0.5295
811.0,0.5293
812.0,0.5132
813.0,0.5019
814.0,0.4382
815.0,0.4356
816.0,0.4051
817.0,0.4128
818.0,0.3966
819.0,0.4463
820.0,0.4192
821.0,0.4941
822.0,0.4793
823.0,0.3195
824.0,0.4639
825.0,0.4854
826.0,0.4658
827.0,0.4929
828.0,0.414
829.0,0.4632
830.0,0.4567
831.0,0.4584
832.0,0.4437
833.0,0.474
834.0,0.4559
835.0,0.5037
836.0,0.4803
837.0,0.5052
838.0,0.4886
839.0,0.4977
840.0,0.5089
841.0,0.5013
842.0,0.503
843.0,0.5033
844.0,0.496
845.0,0.5132
846.0,0.5111
847.0,0.5017
848.0,0.4983
849.0,0.4842
850.0,0.4639
851.0,0.4909
852.0,0.4875
853.0,0.4695
854.0,0.4052
855.0,0.4455
856.0,0.4867
857.0,0.4978
858.0,0.494
859.0,0.4946
860.0,0.4955
861.0,0.4928
862.0,0.5006
863.0,0.5124
864.0,0.4868
865.0,0.4826
866.0,0.4339
867.0,0.4528
868.0,0.4928
869.0,0.4826
870.0,0.4963
871.0,0.4896
872.0,0.4879
873.0,0.4869
874.0,0.4811
875.0,0.4713
876.0,0.4762
877.0,0.4811
878.0,0.4862
879.0,0.4788
880.0,0.4685
881.0,0.4613
882.0,0.4712
883.0,0.4729
884.0,0.4706
885.0,0.4742
886.0,0.4514
887.0,0.4566
888.0,0.463
889.0,0.4688
890.0,0.4643
891.0,0.4638
892.0,0.4496
893.0,0.4346
894.0,0.4176
895.0,0.3923
896.0,0.3687
897.0,0.3138
898.0,0.344
899.0,0.2583
900.0,0.3541
901.0,0.2707
902.0,0.3223
903.0,0.324
904.0,0.4144
905.0,0.3992
906.0,0.3728
907.0,0.2984
908.0,0.305
909.0,0.3325
910.0,0.2903
911.0,0.3119
912.0,0.3267
913.0,0.2944
914.0,0.2926
915.0,0.3173
916.0,0.2677
917.0,0.3437
918.0,0.2742
919.0,0.351
920.0,0.3569
921.0,0.3714
922.0,0.3293
923.0,0.359
924.0,0.3371
925.0,0.3298
926.0,0.3331
927.0,0.3757
928.0,0.2677
929.0,0.2422
930.0,0.1868
931.0,0.1774
932.0,0.1241
933.0,0.09903
934.0,0.05046
935.0,0.1029
936.0,0.06176
937.0,0.06234
938.0,0.07762
939.0,0.1718
940.0,0.2093
941.0,0.1545
942.0,0.181
943.0,0.1163
944.0,0.1251
945.0,0.16
946.0,0.0777
947.0,0.1597
948.0,0.1169
949.0,0.2175
950.0,0.05491
951.0,0.2148
952.0,0.1105
953.0,0.146
954.0,0.1826
955.0,0.148
956.0,0.1462
957.0,0.1103
958.0,0.2119
959.0,0.1642
960.0,0.1841
961.0,0.2098
962.0,0.1982
963.0,0.2313
964.0,0.211
965.0,0.2307
966.0,0.23
967.0,0.2288
968.0,0.317
969.0,0.3301
970.0,0.3019
971.0,0.3501
972.0,0.334
973.0,0.2862
974.0,0.271
975.0,0.2831
976.0,0.2663
977.0,0.3081
978.0,0.2906
979.0,0.3058
980.0,0.2866
981.0,0.3482
982.0,0.3313
983.0,0.3171
984.0,0.3607
985.0,0.33
986.0,0.3682
987.0,0.3597
988.0,0.3591
989.0,0.3679
990.0,0.3569
991.0,0.3688
992.0,0.3711
993.0,0.3615
994.0,0.3711
995.0,0.3709
996.0,0.369
997.0,0.3697
998.0,0.3678
999.0,0.3665
1000.0,0.3636
1001.0,0.3685
1002.0,0.3571
1003.0,0.362
1004.0,0.3528
1005.0,0.3403
1006.0,0.3534
1007.0,0.361
1008.0,0.3588
1009.0,0.3566
1010.0,0.355
1011.0,0.3592
1012.0,0.3558
1013.0,0.3584
1014.0,0.3559
1015.0,0.3535
1016.0,0.3519
1017.0,0.3527
1018.0,0.3515
1019.0,0.3435
1020.0,0.3496
1021.0,0.3492
1022.0,0.3463
1023.0,0.3499
1024.0,0.3449
1025.0,0.3499
1026.0,0.3483
1027.0,0.3475
1028.0,0.3467
1029.0,0.3426
1030.0,0.3451
1031.0,0.3436
1032.0,0.3427
1033.0,0.3375
1034.0,0.3376
1035.0,0.3386
1036.0,0.3403
1037.0,0.3348
1038.0,0.3363
1039.0,0.336
1040.0,0.3347
1041.0,0.336
1042.0,0.3336
1043.0,0.3325
1044.0,0.3337
1045.0,0.3291
1046.0,0.3254
1047.0,0.3283
1048.0,0.3301
1049.0,0.3289
1050.0,0.3273
1051.0,0.3268
1052.0,0.3254
1053.0,0.3228
1054.0,0.3234
1055.0,0.3235
1056.0,0.3223
1057.0,0.3212
1058.0,0.3132
1059.0,0.3135
1060.0,0.313
1061.0,0.3126
1062.0,0.3141
1063.0,0.311
1064.0,0.3147
1065.0,0.3122
1066.0,0.3062
1067.0,0.3101
1068.0,0.3032
1069.0,0.2939
1070.0,0.3038
1071.0,0.3089
1072.0,0.305
1073.0,0.3007
1074.0,0.309
1075.0,0.2921
1076.0,0.3087
1077.0,0.3024
1078.0,0.2963
1079.0,0.3039
1080.0,0.2977
1081.0,0.2875
1082.0,0.2933
1083.0,0.2945
1084.0,0.2864
1085.0,0.2985
1086.0,0.2704
1087.0,0.2805
1088.0,0.2939
1089.0,0.2836
1090.0,0.2766
1091.0,0.2926
1092.0,0.2922
1093.0,0.244
1094.0,0.2668
1095.0,0.2546
1096.0,0.2427
1097.0,0.2854
1098.0,0.2384
1099.0,0.2493
1100.0,0.2302
1101.0,0.2336
1102.0,0.2221
1103.0,0.2192
1104.0,0.2195
1105.0,0.2433
1106.0,0.1799
1107.0,0.2299
1108.0,0.1911
1109.0,0.1922
1110.0,0.2273
1111.0,0.1492
1112.0,0.191
1113.0,0.1166
1114.0,0.1307
1115.0,0.1081
1116.0,0.0834
1117.0,0.0276
1118.0,0.0917
1119.0,0.04296
1120.0,0.05385
1121.0,0.07298
1122.0,0.02855
1123.0,0.04877
1124.0,0.04113
1125.0,0.05429
1126.0,0.01679
1127.0,0.06143
1128.0,0.03442
1129.0,0.03683
1130.0,0.02345
1131.0,0.1223
1132.0,0.09485
1133.0,0.05696
1134.0,0.01291
1135.0,0.004939
1136.0,0.04642
1137.0,0.119
1138.0,0.08328
1139.0,0.1305
1140.0,0.1066
1141.0,0.07919
1142.0,0.09234
1143.0,0.1337
1144.0,0.04376
1145.0,0.055
1146.0,0.05928
1147.0,0.0187
1148.0,0.1156
1149.0,0.09044
1150.0,0.04744
1151.0,0.0826
1152.0,0.1039
1153.0,0.1029
1154.0,0.05308
1155.0,0.136
1156.0,0.1212
1157.0,0.1381
1158.0,0.1366
1159.0,0.1488
1160.0,0.1256
1161.0,0.1581
1162.0,0.1587
1163.0,0.2198
1164.0,0.1865
1165.0,0.174
1166.0,0.1743
1167.0,0.1908
1168.0,0.1925
1169.0,0.1977
1170.0,0.2164
1171.0,0.2109
1172.0,0.2157
1173.0,0.216
1174.0,0.1504
1175.0,0.2118
1176.0,0.2348
1177.0,0.2241
1178.0,0.1655
1179.0,0.2367
1180.0,0.2092
1181.0,0.216
1182.0,0.146
1183.0,0.2131
1184.0,0.1987
1185.0,0.1909
1186.0,0.2293
1187.0,0.2175
1188.0,0.1481
1189.0,0.2024
1190.0,0.2242
1191.0,0.2112
1192.0,0.2275
1193.0,0.2174
1194.0,0.2245
1195.0,0.2111
1196.0,0.2027
1197.0,0.2252
1198.0,0.2053
1199.0,0.1721
1200.0,0.2146
1201.0,0.2061
1202.0,0.2055
1203.0,0.2035
1204.0,0.1768
1205.0,0.211
1206.0,0.2344
1207.0,0.2047
1208.0,0.2022
1209.0,0.2065
1210.0,0.2157
1211.0,0.2045
1212.0,0.2009
1213.0,0.2261
1214.0,0.2062
1215.0,0.2021
1216.0,0.2254
1217.0,0.219
1218.0,0.2236
1219.0,0.2206
1220.0,0.2238
1221.0,0.2263
1222.0,0.2202
1223.0,0.218
1224.0,0.2162
1225.0,0.2248
1226.0,0.2267
1227.0,0.2079
1228.0,0.2281
1229.0,0.2267
1230.0,0.2226
1231.0,0.2297
1232.0,0.2283
1233.0,0.2195
1234.0,0.2297
1235.0,0.2281
1236.0,0.2299
1237.0,0.2262
1238.0,0.2291
1239.0,0.2262
1240.0,0.2271
1241.0,0.2257
1242.0,0.2255
1243.0,0.2237
1244.0,0.2252
1245.0,0.2262
1246.0,0.2249
1247.0,0.2239
1248.0,0.2237
1249.0,0.2245
1250.0,0.223
1251.0,0.22
1252.0,0.2202
1253.0,0.2181
1254.0,0.2157
1255.0,0.2199
1256.0,0.2131
1257.0,0.2118
1258.0,0.2163
1259.0,0.2075
1260.0,0.2087
1261.0,0.1958
1262.0,0.1893
1263.0,0.1896
1264.0,0.1735
1265.0,0.1884
1266.0,0.1804
1267.0,0.1842
1268.0,0.1737
1269.0,0.1016
1270.0,0.1833
1271.0,0.1953
1272.0,0.196
1273.0,0.1938
1274.0,0.1946
1275.0,0.1977
1276.0,0.1998
1277.0,0.2014
1278.0,0.2058
1279.0,0.2039
1280.0,0.2014
1281.0,0.1924
1282.0,0.1857
1283.0,0.2
1284.0,0.2047
1285.0,0.2061
1286.0,0.2091
1287.0,0.2054
1288.0,0.2055
1289.0,0.1983
1290.0,0.2037
1291.0,0.2067
1292.0,0.1928
1293.0,0.2024
1294.0,0.2009
1295.0,0.1995
1296.0,0.1896
1297.0,0.1786
1298.0,0.1937
1299.0,0.2028
1300.0,0.1692
1301.0,0.1749
1302.0,0.1931
1303.0,0.1673
1304.0,0.1404
1305.0,0.189
1306.0,0.1888
1307.0,0.1443
1308.0,0.1679
1309.0,0.1871
1310.0,0.1414
1311.0,0.1605
1312.0,0.1558
1313.0,0.1523
1314.0,0.1355
1315.0,0.1332
1316.0,0.1575
1317.0,0.1489
1318.0,0.1628
1319.0,0.1245
1320.0,0.1212
1321.0,0.1422
1322.0,0.1431
1323.0,0.1053
1324.0,0.1222
1325.0,0.1551
1326.0,0.1316
1327.0,0.1251
1328.0,0.1071
1329.0,0.07836
1330.0,0.1031
1331.0,0.05975
1332.0,0.06252
1333.0,0.08756
1334.0,0.07549
1335.0,0.1049
1336.0,0.08161
1337.0,0.07154
1338.0,0.07738
1339.0,0.0774
1340.0,0.07598
1341.0,0.07257
1342.0,0.07638
1343.0,0.04861
1344.0,0.02934
1345.0,0.04239
1346.0,0.01918
1347.0,0.01918
1348.0,0.001009
1349.0,0.003841
1350.0,0.004158
1351.0,0.0008355
1352.0,0.0001816
1353.0,7.497e-06
1354.0,2.991e-05
1355.0,1.53e-07
1356.0,3.617e-06
1357.0,5.531e-06
1358.0,1.846e-07
1359.0,1.64e-08
1360.0,7.459e-08
1361.0,4.035e-11
1362.0,8.26e-14
1363.0,8.937e-08
1364.0,3.692e-08
1365.0,1.943e-14
1366.0,4.285e-07
1367.0,1.896e-07
1368.0,7.064e-17
1369.0,1.361e-08
1370.0,5.792e-09
1371.0,2.773e-10
1372.0,1.049e-07
1373.0,2.668e-06
1374.0,1.456e-05
1375.0,2.603e-05
1376.0,2.718e-05
1377.0,1.204e-05
1378.0,0.0001253
1379.0,5.05e-06
1380.0,6.554e-06
1381.0,1.572e-07
1382.0,9.061e-08
1383.0,1.207e-09
1384.0,1.447e-08
1385.0,1.018e-07
1386.0,7.262e-08
1387.0,1.356e-05
1388.0,2.733e-07
1389.0,5.549e-05
1390.0,4.741e-05
1391.0,3.074e-05
1392.0,1.916e-06
1393.0,1.107e-05
1394.0,4.365e-06
1395.0,2.711e-08
1396.0,6.427e-11
1397.0,4.14e-06
1398.0,0.0001379
1399.0,8.812e-05
1400.0,2.282e-11
1401.0,1.24e-10
1402.0,0.0003105
1403.0,0.0003728
1404.0,0.0001113
1405.0,1.163e-08
1406.0,0.0002677
1407.0,2.537e-05
1408.0,0.0002223
1409.0,6.534e-05
1410.0,5.767e-05
1411.0,0.0003309
1412.0,0.000476
1413.0,0.005892
1414.0,4.634e-05
1415.0,2.094e-05
1416.0,0.01098
1417.0,0.002918
1418.0,0.003226
1419.0,0.0004851
1420.0,0.001962
1421.0,0.002147
1422.0,0.01441
1423.0,0.002694
1424.0,0.005169
1425.0,0.007387
1426.0,0.008898
1427.0,0.01751
1428.0,0.0009292
1429.0,0.0125
1430.0,0.02285
1431.0,0.0255
1432.0,0.0007243
1433.0,0.01569
1434.0,0.007717
1435.0,0.006837
1436.0,0.01453
1437.0,0.01117
1438.0,0.004354
