interpolation:linear
wavelength,value
280.0,1.371e-21
280.5,4.3850000000000005e-20
281.0,2.328e-19
281.5,4.956e-19
282.0,9.915e-19
282.5,2.488e-18
283.0,7.872e-18
283.5,1.28e-17
284.0,2.07e-16
284.5,5.983e-16
285.0,1.229e-15
285.5,5.902e-15
286.0,2.355e-14
286.5,1.04e-13
287.0,2.946e-13
287.5,1.119e-12
288.0,3.327e-12
288.5,1.053e-11
289.0,2.888e-11
289.5,8.898e-11
290.0,2.498e-10
290.5,5.131e-10
291.0,1.108e-09
291.5,3.197e-09
292.0,6.498e-09
292.5,9.482e-09
293.0,2.133e-08
293.5,5.519e-08
294.0,8.992e-08
294.5,1.177e-07
295.0,2.067e-07
295.5,4.942e-07
296.0,9.09e-07
296.5,1.319e-06
297.0,1.848e-06
297.5,5.263e-06
298.0,8.802e-06
298.5,9.319e-06
299.0,2.17e-05
299.5,4.009e-05
300.0,4.715e-05
300.5,7.362e-05
301.0,0.0001528
301.5,0.0002829
302.0,0.0002651
302.5,0.0005304
303.0,0.0009837
303.5,0.001266
304.0,0.00121
304.5,0.001886
305.0,0.003037
305.5,0.00361
306.0,0.003546
306.5,0.004522
307.0,0.007065
307.5,0.009866
308.0,0.01051
308.5,0.01271
309.0,0.01268
309.5,0.01494
310.0,0.01522
310.5,0.02482
311.0,0.0315
311.5,0.03056
312.0,0.03129
312.5,0.03867
313.0,0.04229
313.5,0.04077
314.0,0.05193
314.5,0.04718
315.0,0.06228
315.5,0.05152
316.0,0.04588
316.5,0.06699
317.0,0.08317
317.5,0.08617
318.0,0.068
318.5,0.08625
319.0,0.1035
319.5,0.08294
320.0,0.09998
320.5,0.1279
321.0,0.116
321.5,0.1115
322.0,0.1165
322.5,0.1015
323.0,0.1024
323.5,0.1274
324.0,0.149
324.5,0.1505
325.0,0.1293
325.5,0.1681
326.0,0.206
326.5,0.2077
327.0,0.2066
327.5,0.199
328.0,0.1757
328.5,0.1867
329.0,0.2254
329.5,0.2565
330.0,0.2583
330.5,0.2055
331.0,0.209
331.5,0.2135
332.0,0.2323
332.5,0.2305
333.0,0.2295
333.5,0.2068
334.0,0.2117
334.5,0.2457
335.0,0.2317
335.5,0.2708
336.0,0.1874
336.5,0.2192
337.0,0.1795
337.5,0.2231
338.0,0.2189
338.5,0.2529
339.0,0.2505
339.5,0.241
340.0,0.2831
340.5,0.2554
341.0,0.2492
341.5,0.229
342.0,0.2738
342.5,0.2563
343.0,0.2819
343.5,0.2655
344.0,0.1962
344.5,0.1983
345.0,0.2626
345.5,0.2683
346.0,0.2282
346.5,0.2585
347.0,0.2775
347.5,0.2245
348.0,0.2561
348.5,0.2561
349.0,0.2377
349.5,0.2355
350.0,0.2914
350.5,0.3075
351.0,0.2747
351.5,0.267
352.0,0.2869
352.5,0.2241
353.0,0.2824
353.5,0.3021
354.0,0.3138
354.5,0.3183
355.0,0.3173
355.5,0.2868
356.0,0.3002
356.5,0.2564
357.0,0.2119
357.5,0.2595
358.0,0.2058
358.5,0.1759
359.0,0.2461
359.5,0.3136
360.0,0.3326
360.5,0.2659
361.0,0.2426
361.5,0.2795
362.0,0.2419
362.5,0.335
363.0,0.301
363.5,0.2774
364.0,0.3395
364.5,0.2903
365.0,0.2958
365.5,0.3714
366.0,0.3937
366.5,0.3701
367.0,0.3606
367.5,0.3743
368.0,0.3277
368.5,0.3308
369.0,0.3575
369.5,0.3812
370.0,0.4065
370.5,0.3157
371.0,0.3374
371.5,0.4223
372.0,0.2804
372.5,0.3363
373.0,0.3423
373.5,0.2228
374.0,0.3239
374.5,0.2684
375.0,0.261
375.5,0.3898
376.0,0.3232
376.5,0.335
377.0,0.3549
377.5,0.4154
378.0,0.4504
378.5,0.4258
379.0,0.3515
379.5,0.3212
380.0,0.334
380.5,0.4048
381.0,0.4058
381.5,0.3219
382.0,0.286
382.5,0.244
383.0,0.226
383.5,0.2178
384.0,0.2403
384.5,0.3536
385.0,0.3508
385.5,0.3269
386.0,0.2801
386.5,0.3681
387.0,0.306
387.5,0.3438
388.0,0.3176
388.5,0.3141
389.0,0.3391
389.5,0.4109
390.0,0.4126
390.5,0.3798
391.0,0.4473
391.5,0.4564
392.0,0.3845
392.5,0.3444
393.0,0.1917
393.5,0.1394
394.0,0.2838
394.5,0.361
395.0,0.4407
395.5,0.4478
396.0,0.3884
396.5,0.2272
397.0,0.1706
397.5,0.347
398.0,0.486
398.5,0.5025
399.0,0.5445
399.5,0.5429
400.0,0.5638
401.0,0.5708
402.0,0.6028
403.0,0.5731
404.0,0.5646
405.0,0.5648
406.0,0.5561
407.0,0.5476
408.0,0.5692
409.0,0.6096
410.0,0.533
411.0,0.5777
412.0,0.6211
413.0,0.6059
414.0,0.6137
415.0,0.6158
416.0,0.627
417.0,0.6119
418.0,0.6009
419.0,0.6092
420.0,0.6068
421.0,0.6352
422.0,0.604
423.0,0.5903
424.0,0.6246
425.0,0.6238
426.0,0.6081
427.0,0.597
428.0,0.5818
429.0,0.5515
430.0,0.483
431.0,0.4788
432.0,0.6186
433.0,0.6223
434.0,0.578
435.0,0.6038
436.0,0.6808
437.0,0.6721
438.0,0.6123
439.0,0.6331
440.0,0.6536
441.0,0.6777
442.0,0.7271
443.0,0.7081
444.0,0.7239
445.0,0.7083
446.0,0.6765
447.0,0.7319
448.0,0.7431
449.0,0.7467
450.0,0.7679
451.0,0.7967
452.0,0.7678
453.0,0.7224
454.0,0.7546
455.0,0.7594
456.0,0.7776
457.0,0.7907
458.0,0.7636
459.0,0.7598
460.0,0.7619
461.0,0.7795
462.0,0.7859
463.0,0.7806
464.0,0.7682
465.0,0.759
466.0,0.7667
467.0,0.7526
468.0,0.7616
469.0,0.7656
470.0,0.7412
471.0,0.7404
472.0,0.7802
473.0,0.7701
474.0,0.771
475.0,0.7773
476.0,0.7536
477.0,0.7555
478.0,0.7766
479.0,0.7722
480.0,0.7739
481.0,0.7888
482.0,0.7934
483.0,0.7843
484.0,0.7685
485.0,0.7324
486.0,0.6406
487.0,0.6716
488.0,0.7369
489.0,0.739
490.0,0.7777
491.0,0.7646
492.0,0.7221
493.0,0.7458
494.0,0.7534
495.0,0.7598
496.0,0.7646
497.0,0.7764
498.0,0.7401
499.0,0.7494
500.0,0.7274
501.0,0.7137
502.0,0.7032
503.0,0.7313
504.0,0.7111
505.0,0.7379
506.0,0.7617
507.0,0.7249
508.0,0.7028
509.0,0.723
510.0,0.7195
511.0,0.7391
512.0,0.7473
513.0,0.7074
514.0,0.7027
515.0,0.6957
516.0,0.694
517.0,0.6167
518.0,0.6484
519.0,0.68
520.0,0.7047
521.0,0.7114
522.0,0.7118
523.0,0.6989
524.0,0.7237
525.0,0.7318
526.0,0.6989
527.0,0.6583
528.0,0.696
529.0,0.7334
530.0,0.7227
531.0,0.7333
532.0,0.708
533.0,0.6873
534.0,0.7078
535.0,0.7234
536.0,0.7302
537.0,0.7016
538.0,0.7141
539.0,0.7081
540.0,0.6788
541.0,0.6828
542.0,0.704
543.0,0.6969
544.0,0.7086
545.0,0.7065
546.0,0.7092
547.0,0.7092
548.0,0.7009
549.0,0.7032
550.0,0.7116
551.0,0.703
552.0,0.7079
553.0,0.6952
554.0,0.7118
555.0,0.7131
556.0,0.7037
557.0,0.6817
558.0,0.6763
559.0,0.6634
560.0,0.6716
561.0,0.68
562.0,0.6748
563.0,0.6929
564.0,0.6737
565.0,0.6677
566.0,0.6576
567.0,0.6698
568.0,0.6629
569.0,0.6455
570.0,0.6456
571.0,0.6421
572.0,0.6564
573.0,0.6632
574.0,0.6609
575.0,0.6481
576.0,0.6423
577.0,0.6494
578.0,0.6402
579.0,0.6435
580.0,0.6569
581.0,0.6612
582.0,0.6745
583.0,0.6769
584.0,0.6832
585.0,0.6668
586.0,0.6531
587.0,0.6669
588.0,0.6486
589.0,0.5705
590.0,0.597
591.0,0.6342
592.0,0.6247
593.0,0.6358
594.0,0.6306
595.0,0.6136
596.0,0.6411
597.0,0.6333
598.0,0.6327
599.0,0.6337
600.0,0.6355
601.0,0.631
602.0,0.6268
603.0,0.6375
604.0,0.6482
605.0,0.645
606.0,0.6427
607.0,0.6495
608.0,0.6427
609.0,0.6441
610.0,0.6398
611.0,0.6434
612.0,0.6417
613.0,0.6338
614.0,0.6255
615.0,0.6394
616.0,0.6186
617.0,0.6175
618.0,0.6415
619.0,0.6351
620.0,0.6391
621.0,0.6394
622.0,0.6317
623.0,0.6218
624.0,0.6114
625.0,0.61
626.0,0.619
627.0,0.6251
628.0,0.5746
629.0,0.6072
630.0,0.5928
631.0,0.6094
632.0,0.6026
633.0,0.6223
634.0,0.6172
635.0,0.6274
636.0,0.6197
637.0,0.6303
638.0,0.637
639.0,0.6303
640.0,0.6246
641.0,0.6245
642.0,0.622
643.0,0.6305
644.0,0.6288
645.0,0.6296
646.0,0.6138
647.0,0.604
648.0,0.6045
649.0,0.5925
650.0,0.5986
651.0,0.6252
652.0,0.5958
653.0,0.6171
654.0,0.6105
655.0,0.5861
656.0,0.5206
657.0,0.5348
658.0,0.6004
659.0,0.6051
660.0,0.6078
661.0,0.6122
662.0,0.6128
663.0,0.6009
664.0,0.609
665.0,0.6102
666.0,0.611
667.0,0.6108
668.0,0.6114
669.0,0.6211
670.0,0.6186
671.0,0.6186
672.0,0.6134
673.0,0.6228
674.0,0.6207
675.0,0.6152
676.0,0.6195
677.0,0.6135
678.0,0.6154
679.0,0.6055
680.0,0.6105
681.0,0.6065
682.0,0.6057
683.0,0.6046
684.0,0.6016
685.0,0.6069
686.0,0.6031
687.0,0.3611
688.0,0.4412
689.0,0.4434
690.0,0.4714
691.0,0.5034
692.0,0.5276
693.0,0.5227
694.0,0.5188
695.0,0.5451
696.0,0.5461
697.0,0.5854
698.0,0.5762
699.0,0.5585
700.0,0.5515
701.0,0.5446
702.0,0.5498
703.0,0.5511
704.0,0.5711
705.0,0.5719
706.0,0.5723
707.0,0.5731
708.0,0.5743
709.0,0.5766
710.0,0.5758
711.0,0.5756
712.0,0.5746
713.0,0.5681
714.0,0.5704
715.0,0.5509
716.0,0.5508
717.0,0.4633
718.0,0.4238
719.0,0.387
720.0,0.404
721.0,0.4545
722.0,0.5292
723.0,0.488
724.0,0.4341
725.0,0.4253
726.0,0.4458
727.0,0.4558
728.0,0.4235
729.0,0.4445
730.0,0.4697
731.0,0.4482
732.0,0.4847
733.0,0.5182
734.0,0.532
735.0,0.5202
736.0,0.5194
737.0,0.5214
738.0,0.5331
739.0,0.5226
740.0,0.5374
741.0,0.5327
742.0,0.5339
743.0,0.5477
744.0,0.5465
745.0,0.547
746.0,0.5495
747.0,0.5508
748.0,0.5497
749.0,0.5434
750.0,0.5431
751.0,0.5376
752.0,0.54
753.0,0.5428
754.0,0.544
755.0,0.5409
756.0,0.5407
757.0,0.5415
758.0,0.5347
759.0,0.5216
760.0,0.05507
761.0,0.02456
762.0,0.2258
763.0,0.09384
764.0,0.157
765.0,0.2257
766.0,0.2954
767.0,0.3925
768.0,0.4697
769.0,0.4834
770.0,0.5043
771.0,0.5103
772.0,0.512
773.0,0.5157
774.0,0.5134
775.0,0.5096
776.0,0.5158
777.0,0.509
778.0,0.5059
779.0,0.5064
780.0,0.5036
781.0,0.5041
782.0,0.5073
783.0,0.4985
784.0,0.501
785.0,0.4971
786.0,0.5024
787.0,0.4919
788.0,0.485
789.0,0.4846
790.0,0.4693
791.0,0.4758
792.0,0.4726
793.0,0.4647
794.0,0.4752
795.0,0.4826
796.0,0.4643
797.0,0.4647
798.0,0.4816
799.0,0.4779
800.0,0.4687
801.0,0.4665
802.0,0.4652
803.0,0.4612
804.0,0.4622
805.0,0.4618
806.0,0.4764
807.0,0.4703
808.0,0.4709
809.0,0.4607
810.0,0.4561
811.0,0.4548
812.0,0.4396
813.0,0.4292
814.0,0.3705
815.0,0.3686
816.0,0.3422
817.0,0.3491
818.0,0.3344
819.0,0.38
820.0,0.3556
821.0,0.4244
822.0,0.4109
823.0,0.2659
824.0,0.3957
825.0,0.4169
826.0,0.3983
827.0,0.4232
828.0,0.3506
829.0,0.3965
830.0,0.3905
831.0,0.392
832.0,0.3785
833.0,0.4067
834.0,0.3896
835.0,0.434
836.0,0.4115
837.0,0.4354
838.0,0.42
839.0,0.4293
840.0,0.4392
841.0,0.4321
842.0,0.4344
843.0,0.4355
844.0,0.4287
845.0,0.4442
846.0,0.4424
847.0,0.4346
848.0,0.4313
849.0,0.419
850.0,0.4015
851.0,0.4245
852.0,0.4218
853.0,0.4065
854.0,0.3506
855.0,0.3858
856.0,0.4213
857.0,0.4311
858.0,0.4278
859.0,0.4284
860.0,0.4294
861.0,0.427
862.0,0.4338
863.0,0.444
864.0,0.4219
865.0,0.4182
866.0,0.3761
867.0,0.3925
868.0,0.4271
869.0,0.4183
870.0,0.4302
871.0,0.4243
872.0,0.4229
873.0,0.422
874.0,0.417
875.0,0.4085
876.0,0.4128
877.0,0.417
878.0,0.4214
879.0,0.4149
880.0,0.4061
881.0,0.3997
882.0,0.4082
883.0,0.4098
884.0,0.4078
885.0,0.4108
886.0,0.3904
887.0,0.3955
888.0,0.4007
889.0,0.4063
890.0,0.4017
891.0,0.4016
892.0,0.3884
893.0,0.3746
894.0,0.358
895.0,0.3339
896.0,0.3132
897.0,0.2637
898.0,0.2906
899.0,0.2149
900.0,0.3009
901.0,0.2253
902.0,0.2727
903.0,0.2725
904.0,0.3553
905.0,0.3414
906.0,0.318
907.0,0.2501
908.0,0.2565
909.0,0.2814
910.0,0.2421
911.0,0.2627
912.0,0.2756
913.0,0.2454
914.0,0.2446
915.0,0.2651
916.0,0.2231
917.0,0.2899
918.0,0.2283
919.0,0.2973
920.0,0.3047
921.0,0.3171
922.0,0.2785
923.0,0.3067
924.0,0.2845
925.0,0.2785
926.0,0.281
927.0,0.3195
928.0,0.2204
929.0,0.1974
930.0,0.1493
931.0,0.142
932.0,0.09617
933.0,0.07531
934.0,0.03543
935.0,0.07939
936.0,0.04575
937.0,0.04606
938.0,0.05807
939.0,0.1374
940.0,0.1697
941.0,0.1223
942.0,0.145
943.0,0.09089
944.0,0.1
945.0,0.1273
946.0,0.05887
947.0,0.1263
948.0,0.0921
949.0,0.1749
950.0,0.04014
951.0,0.1733
952.0,0.08546
953.0,0.1154
954.0,0.1472
955.0,0.1173
956.0,0.1183
957.0,0.08501
958.0,0.1749
959.0,0.1322
960.0,0.1482
961.0,0.1716
962.0,0.1619
963.0,0.1913
964.0,0.1738
965.0,0.1908
966.0,0.1899
967.0,0.1885
968.0,0.2701
969.0,0.2801
970.0,0.2553
971.0,0.2999
972.0,0.2853
973.0,0.2407
974.0,0.2275
975.0,0.239
976.0,0.2227
977.0,0.262
978.0,0.2453
979.0,0.2593
980.0,0.2425
981.0,0.2984
982.0,0.2824
983.0,0.2696
984.0,0.3108
985.0,0.2813
986.0,0.3183
987.0,0.3096
988.0,0.3093
989.0,0.3187
990.0,0.3073
991.0,0.3194
992.0,0.3215
993.0,0.3119
994.0,0.3216
995.0,0.3216
996.0,0.3198
997.0,0.3204
998.0,0.3188
999.0,0.3177
1000.0,0.3149
1001.0,0.3195
1002.0,0.3084
1003.0,0.3137
1004.0,0.3054
1005.0,0.2951
1006.0,0.3062
1007.0,0.3129
1008.0,0.3108
1009.0,0.3087
1010.0,0.3071
1011.0,0.3114
1012.0,0.3082
1013.0,0.3107
1014.0,0.3085
1015.0,0.3064
1016.0,0.305
1017.0,0.3057
1018.0,0.3048
1019.0,0.2975
1020.0,0.3031
1021.0,0.3028
1022.0,0.3001
1023.0,0.3033
1024.0,0.2984
1025.0,0.3034
1026.0,0.3018
1027.0,0.3012
1028.0,0.3005
1029.0,0.2969
1030.0,0.2992
1031.0,0.2979
1032.0,0.2971
1033.0,0.2926
1034.0,0.2927
1035.0,0.2936
1036.0,0.295
1037.0,0.2902
1038.0,0.2915
1039.0,0.2913
1040.0,0.2901
1041.0,0.2912
1042.0,0.2891
1043.0,0.2881
1044.0,0.2891
1045.0,0.2851
1046.0,0.2819
1047.0,0.2844
1048.0,0.2859
1049.0,0.2848
1050.0,0.2834
1051.0,0.2829
1052.0,0.2817
1053.0,0.2793
1054.0,0.2798
1055.0,0.2798
1056.0,0.2787
1057.0,0.2777
1058.0,0.2708
1059.0,0.2709
1060.0,0.2704
1061.0,0.27
1062.0,0.2713
1063.0,0.2685
1064.0,0.2717
1065.0,0.2694
1066.0,0.2644
1067.0,0.2677
1068.0,0.2616
1069.0,0.2537
1070.0,0.2621
1071.0,0.267
1072.0,0.2633
1073.0,0.2596
1074.0,0.2672
1075.0,0.2514
1076.0,0.2669
1077.0,0.2608
1078.0,0.2552
1079.0,0.263
1080.0,0.2568
1081.0,0.2474
1082.0,0.2534
1083.0,0.2547
1084.0,0.2462
1085.0,0.2576
1086.0,0.2317
1087.0,0.2415
1088.0,0.254
1089.0,0.2439
1090.0,0.2373
1091.0,0.2526
1092.0,0.2524
1093.0,0.2077
1094.0,0.2301
1095.0,0.217
1096.0,0.206
1097.0,0.2466
1098.0,0.2019
1099.0,0.2116
1100.0,0.1941
1101.0,0.1974
1102.0,0.1868
1103.0,0.1838
1104.0,0.1842
1105.0,0.2062
1106.0,0.1475
1107.0,0.1939
1108.0,0.1583
1109.0,0.1597
1110.0,0.1912
1111.0,0.1216
1112.0,0.159
1113.0,0.09317
1114.0,0.1047
1115.0,0.08636
1116.0,0.06444
1117.0,0.01931
1118.0,0.07145
1119.0,0.03167
1120.0,0.03945
1121.0,0.05451
1122.0,0.01984
1123.0,0.03582
1124.0,0.03018
1125.0,0.04031
1126.0,0.01107
1127.0,0.04576
1128.0,0.02403
1129.0,0.02589
1130.0,0.01609
1131.0,0.09544
1132.0,0.0732
1133.0,0.04171
1134.0,0.008426
1135.0,0.003302
1136.0,0.03319
1137.0,0.09202
1138.0,0.06399
1139.0,0.1052
1140.0,0.08414
1141.0,0.0609
1142.0,0.07192
1143.0,0.1063
1144.0,0.03269
1145.0,0.04028
1146.0,0.04338
1147.0,0.01228
1148.0,0.09162
1149.0,0.07035
1150.0,0.03585
1151.0,0.06346
1152.0,0.08147
1153.0,0.08202
1154.0,0.03891
1155.0,0.1096
1156.0,0.0967
1157.0,0.112
1158.0,0.1107
1159.0,0.1218
1160.0,0.1018
1161.0,0.1308
1162.0,0.131
1163.0,0.1863
1164.0,0.1564
1165.0,0.1442
1166.0,0.1458
1167.0,0.1604
1168.0,0.1614
1169.0,0.1663
1170.0,0.1835
1171.0,0.1788
1172.0,0.1838
1173.0,0.1832
1174.0,0.1242
1175.0,0.1804
1176.0,0.202
1177.0,0.1914
1178.0,0.1388
1179.0,0.2037
1180.0,0.1779
1181.0,0.1838
1182.0,0.1214
1183.0,0.1818
1184.0,0.1685
1185.0,0.161
1186.0,0.1964
1187.0,0.1853
1188.0,0.1226
1189.0,0.1723
1190.0,0.1922
1191.0,0.1792
1192.0,0.1952
1193.0,0.1859
1194.0,0.1924
1195.0,0.1797
1196.0,0.1718
1197.0,0.1935
1198.0,0.1758
1199.0,0.1448
1200.0,0.1835
1201.0,0.1753
1202.0,0.1755
1203.0,0.1734
1204.0,0.1495
1205.0,0.181
1206.0,0.2023
1207.0,0.1744
1208.0,0.1731
1209.0,0.177
1210.0,0.1855
1211.0,0.1749
1212.0,0.1704
1213.0,0.1945
1214.0,0.1755
1215.0,0.1718
1216.0,0.194
1217.0,0.188
1218.0,0.1924
1219.0,0.1895
1220.0,0.1927
1221.0,0.1951
1222.0,0.1896
1223.0,0.1875
1224.0,0.1855
1225.0,0.1938
1226.0,0.1957
1227.0,0.1782
1228.0,0.1972
1229.0,0.1957
1230.0,0.192
1231.0,0.199
1232.0,0.1977
1233.0,0.1889
1234.0,0.1992
1235.0,0.1977
1236.0,0.1993
1237.0,0.1957
1238.0,0.1987
1239.0,0.1961
1240.0,0.1969
1241.0,0.1955
1242.0,0.1955
1243.0,0.194
1244.0,0.1952
1245.0,0.1961
1246.0,0.195
1247.0,0.1941
1248.0,0.1937
1249.0,0.1945
1250.0,0.1932
1251.0,0.1904
1252.0,0.1909
1253.0,0.1886
1254.0,0.1862
1255.0,0.1905
1256.0,0.1838
1257.0,0.1826
1258.0,0.187
1259.0,0.1782
1260.0,0.1794
1261.0,0.1668
1262.0,0.1605
1263.0,0.1607
1264.0,0.1454
1265.0,0.1598
1266.0,0.152
1267.0,0.1559
1268.0,0.1459
1269.0,0.0786
1270.0,0.1548
1271.0,0.1666
1272.0,0.1674
1273.0,0.1653
1274.0,0.1663
1275.0,0.1691
1276.0,0.1713
1277.0,0.173
1278.0,0.1773
1279.0,0.1756
1280.0,0.1735
1281.0,0.166
1282.0,0.1608
1283.0,0.173
1284.0,0.177
1285.0,0.1783
1286.0,0.1811
1287.0,0.1775
1288.0,0.1777
1289.0,0.1705
1290.0,0.1762
1291.0,0.179
1292.0,0.1653
1293.0,0.1748
1294.0,0.1734
1295.0,0.1717
1296.0,0.1622
1297.0,0.152
1298.0,0.1665
1299.0,0.1753
1300.0,0.1437
1301.0,0.149
1302.0,0.166
1303.0,0.1423
1304.0,0.117
1305.0,0.1624
1306.0,0.162
1307.0,0.1211
1308.0,0.1433
1309.0,0.1601
1310.0,0.1185
1311.0,0.1363
1312.0,0.132
1313.0,0.1285
1314.0,0.1135
1315.0,0.111
1316.0,0.1334
1317.0,0.1258
1318.0,0.1385
1319.0,0.103
1320.0,0.1009
1321.0,0.1194
1322.0,0.1196
1323.0,0.08574
1324.0,0.1012
1325.0,0.131
1326.0,0.1098
1327.0,0.1039
1328.0,0.08818
1329.0,0.06247
1330.0,0.08323
1331.0,0.04602
1332.0,0.04887
1333.0,0.06888
1334.0,0.0608
1335.0,0.08521
1336.0,0.06504
1337.0,0.05659
1338.0,0.0611
1339.0,0.06144
1340.0,0.06098
1341.0,0.05669
1342.0,0.05985
1343.0,0.03548
1344.0,0.02168
1345.0,0.03121
1346.0,0.0127
1347.0,0.01243
1348.0,0.0005197
1349.0,0.002095
1350.0,0.002363
1351.0,0.0003835
1352.0,6.36e-05
1353.0,2.104e-06
1354.0,9.944e-06
1355.0,3.049e-08
1356.0,1.007e-06
1357.0,1.539e-06
1358.0,3.756e-08
1359.0,2.263e-09
1360.0,1.318e-08
1361.0,3.604e-12
1362.0,6.358e-15
1363.0,1.327e-08
1364.0,5.659e-09
1365.0,1.351e-15
1366.0,7.013e-08
1367.0,3.501e-08
1368.0,6.806e-18
1369.0,2.074e-09
1370.0,7.523e-10
1371.0,3.098e-11
1372.0,1.96e-08
1373.0,6.376e-07
1374.0,4.175e-06
1375.0,7.152e-06
1376.0,9.144e-06
1377.0,3.917e-06
1378.0,4.249e-05
1379.0,1.652e-06
1380.0,1.876e-06
1381.0,4.187e-08
1382.0,1.608e-08
1383.0,1.944e-10
1384.0,2.044e-09
1385.0,2.223e-08
1386.0,1.136e-08
1387.0,3.342e-06
1388.0,7.301e-08
1389.0,1.724e-05
1390.0,1.444e-05
1391.0,9.196e-06
1392.0,5.609e-07
1393.0,3.538e-06
1394.0,9.994e-07
1395.0,5.34e-09
1396.0,6.126e-12
1397.0,1.234e-06
1398.0,4.532e-05
1399.0,2.94e-05
1400.0,1.852e-12
1401.0,1.254e-11
1402.0,0.0001389
1403.0,0.000157
1404.0,4.55e-05
1405.0,1.982e-09
1406.0,9.87e-05
1407.0,1.057e-05
1408.0,8.37e-05
1409.0,2.106e-05
1410.0,2.135e-05
1411.0,0.0001412
1412.0,0.0002188
1413.0,0.00326
1414.0,1.758e-05
1415.0,7.437e-06
1416.0,0.006997
1417.0,0.001657
1418.0,0.00174
1419.0,0.0002549
1420.0,0.001053
1421.0,0.001193
1422.0,0.009193
1423.0,0.001679
1424.0,0.003302
1425.0,0.004557
1426.0,0.005829
1427.0,0.01212
1428.0,0.0004666
1429.0,0.008288
1430.0,0.0162
1431.0,0.01833
1432.0,0.0003609
1433.0,0.01097
1434.0,0.005247
1435.0,0.004166
1436.0,0.009651
