interpolation:linear
wavelength,value
280.0,2.489e-21
280.5,7.84e-20
281.0,4.143e-19
281.5,3.649e-19
282.0,1.022e-18
282.5,2.679e-18
283.0,8.655e-18
283.5,1.416e-17
284.0,2.311e-16
284.5,6.677e-16
285.0,1.494e-15
285.5,7.21e-15
286.0,2.88e-14
286.5,1.269e-13
287.0,3.588e-13
287.5,1.357e-12
288.0,3.679e-12
288.5,1.211e-11
289.0,3.415e-11
289.5,1.075e-10
290.0,3.061e-10
290.5,6.349e-10
291.0,1.385e-09
291.5,4.034e-09
292.0,8.524e-09
292.5,1.276e-08
293.0,2.966e-08
293.5,8.046e-08
294.0,1.359e-07
294.5,1.759e-07
295.0,3.209e-07
295.5,8.21e-07
296.0,1.644e-06
296.5,2.399e-06
297.0,3.372e-06
297.5,9.637e-06
298.0,1.612e-05
298.5,1.705e-05
299.0,3.962e-05
299.5,7.254e-05
300.0,8.476e-05
300.5,0.0001313
301.0,0.0002681
301.5,0.0004879
302.0,0.0004528
302.5,0.0008968
303.0,0.00164
303.5,0.002089
304.0,0.00198
304.5,0.003016
305.0,0.004702
305.5,0.005477
306.0,0.005336
306.5,0.006715
307.0,0.01019
307.5,0.01382
308.0,0.01465
308.5,0.01747
309.0,0.01726
309.5,0.01997
310.0,0.02016
310.5,0.03274
311.0,0.04127
311.5,0.03992
312.0,0.04026
312.5,0.04927
313.0,0.0536
313.5,0.05193
314.0,0.06536
314.5,0.05845
315.0,0.07693
315.5,0.06412
316.0,0.05638
316.5,0.08142
317.0,0.1011
317.5,0.1051
318.0,0.08229
318.5,0.1029
319.0,0.1225
319.5,0.09936
320.0,0.12
320.5,0.1512
321.0,0.1354
321.5,0.13
322.0,0.1377
322.5,0.1199
323.0,0.1199
323.5,0.1478
324.0,0.1727
324.5,0.1751
325.0,0.151
325.5,0.1949
326.0,0.2385
326.5,0.2393
327.0,0.2384
327.5,0.2301
328.0,0.2045
328.5,0.2156
329.0,0.2587
329.5,0.2938
330.0,0.2963
330.5,0.2369
331.0,0.2413
331.5,0.2456
332.0,0.2658
332.5,0.2631
333.0,0.2623
333.5,0.2372
334.0,0.243
334.5,0.2809
335.0,0.2642
335.5,0.3086
336.0,0.2136
336.5,0.2501
337.0,0.2051
337.5,0.2552
338.0,0.2494
338.5,0.288
339.0,0.2852
339.5,0.2744
340.0,0.3225
340.5,0.2908
341.0,0.2837
341.5,0.2606
342.0,0.3115
342.5,0.2916
343.0,0.3207
343.5,0.302
344.0,0.2233
344.5,0.2255
345.0,0.2986
345.5,0.305
346.0,0.2593
346.5,0.2938
347.0,0.3154
347.5,0.2551
348.0,0.2909
348.5,0.2909
349.0,0.27
349.5,0.2674
350.0,0.3309
350.5,0.3491
351.0,0.3119
351.5,0.3032
352.0,0.3258
352.5,0.2543
353.0,0.3205
353.5,0.3428
354.0,0.3559
354.5,0.361
355.0,0.3599
355.5,0.3253
356.0,0.3405
356.5,0.2908
357.0,0.2403
357.5,0.2942
358.0,0.2333
358.5,0.1994
359.0,0.2789
359.5,0.3555
360.0,0.377
360.5,0.3014
361.0,0.2749
361.5,0.3166
362.0,0.274
362.5,0.3793
363.0,0.3409
363.5,0.3141
364.0,0.3843
364.5,0.3286
365.0,0.3347
365.5,0.4203
366.0,0.4455
366.5,0.4187
367.0,0.4079
367.5,0.4234
368.0,0.3707
368.5,0.3741
369.0,0.4042
369.5,0.431
370.0,0.4596
370.5,0.3568
371.0,0.3814
371.5,0.4773
372.0,0.3169
372.5,0.38
373.0,0.3867
373.5,0.2517
374.0,0.3659
374.5,0.3031
375.0,0.2947
375.5,0.4401
376.0,0.365
376.5,0.3783
377.0,0.4007
377.5,0.4689
378.0,0.5084
378.5,0.4806
379.0,0.3967
379.5,0.3625
380.0,0.3769
380.5,0.4567
381.0,0.4579
381.5,0.3631
382.0,0.3226
382.5,0.2751
383.0,0.2548
383.5,0.2455
384.0,0.2709
384.5,0.3986
385.0,0.3954
385.5,0.3684
386.0,0.3156
386.5,0.4148
387.0,0.3447
387.5,0.3873
388.0,0.3577
388.5,0.3537
389.0,0.3819
389.5,0.4627
390.0,0.4645
390.5,0.4276
391.0,0.5035
391.5,0.5137
392.0,0.4328
392.5,0.3876
393.0,0.2158
393.5,0.1569
394.0,0.3193
394.5,0.4061
395.0,0.4957
395.5,0.5037
396.0,0.4368
396.5,0.2555
397.0,0.1918
397.5,0.3901
398.0,0.5464
398.5,0.5649
399.0,0.612
399.5,0.6101
400.0,0.6336
401.0,0.6421
402.0,0.6779
403.0,0.6443
404.0,0.6347
405.0,0.6349
406.0,0.625
407.0,0.6152
408.0,0.6395
409.0,0.6847
410.0,0.5986
411.0,0.6487
412.0,0.6972
413.0,0.6801
414.0,0.6887
415.0,0.6909
416.0,0.7034
417.0,0.6863
418.0,0.6739
419.0,0.6831
420.0,0.6803
421.0,0.712
422.0,0.6769
423.0,0.6615
424.0,0.6998
425.0,0.6989
426.0,0.6811
427.0,0.6686
428.0,0.6515
429.0,0.6174
430.0,0.5406
431.0,0.5358
432.0,0.6922
433.0,0.6962
434.0,0.6466
435.0,0.6754
436.0,0.7614
437.0,0.7515
438.0,0.6846
439.0,0.7079
440.0,0.7307
441.0,0.7575
442.0,0.8126
443.0,0.7915
444.0,0.8089
445.0,0.7915
446.0,0.7558
447.0,0.8174
448.0,0.8301
449.0,0.8338
450.0,0.8574
451.0,0.8893
452.0,0.857
453.0,0.8063
454.0,0.842
455.0,0.8473
456.0,0.8676
457.0,0.8821
458.0,0.852
459.0,0.8477
460.0,0.85
461.0,0.8697
462.0,0.8766
463.0,0.8706
464.0,0.8566
465.0,0.8461
466.0,0.8546
467.0,0.8389
468.0,0.8488
469.0,0.8534
470.0,0.8261
471.0,0.8252
472.0,0.8695
473.0,0.8583
474.0,0.8594
475.0,0.8665
476.0,0.8404
477.0,0.8426
478.0,0.8661
479.0,0.861
480.0,0.8628
481.0,0.8792
482.0,0.8841
483.0,0.8737
484.0,0.856
485.0,0.8157
486.0,0.7133
487.0,0.7477
488.0,0.8203
489.0,0.8228
490.0,0.8658
491.0,0.851
492.0,0.8037
493.0,0.8301
494.0,0.8384
495.0,0.8456
496.0,0.8509
497.0,0.8641
498.0,0.8236
499.0,0.8341
500.0,0.8097
501.0,0.7947
502.0,0.7832
503.0,0.8148
504.0,0.7931
505.0,0.8223
506.0,0.8489
507.0,0.8078
508.0,0.7829
509.0,0.8051
510.0,0.8011
511.0,0.8228
512.0,0.8318
513.0,0.7874
514.0,0.7821
515.0,0.7743
516.0,0.7724
517.0,0.6864
518.0,0.7216
519.0,0.7568
520.0,0.7843
521.0,0.7918
522.0,0.7924
523.0,0.7781
524.0,0.8057
525.0,0.815
526.0,0.7785
527.0,0.7334
528.0,0.7755
529.0,0.8172
530.0,0.8054
531.0,0.8173
532.0,0.7892
533.0,0.7661
534.0,0.7888
535.0,0.8061
536.0,0.8136
537.0,0.7817
538.0,0.7955
539.0,0.7888
540.0,0.7562
541.0,0.761
542.0,0.7846
543.0,0.7766
544.0,0.7898
545.0,0.7875
546.0,0.7907
547.0,0.7905
548.0,0.7812
549.0,0.7836
550.0,0.793
551.0,0.7834
552.0,0.7888
553.0,0.7747
554.0,0.7932
555.0,0.7947
556.0,0.7843
557.0,0.7599
558.0,0.754
559.0,0.7398
560.0,0.7489
561.0,0.7584
562.0,0.7528
563.0,0.7731
564.0,0.7519
565.0,0.7452
566.0,0.7342
567.0,0.7478
568.0,0.7406
569.0,0.722
570.0,0.7219
571.0,0.7179
572.0,0.7344
573.0,0.7421
574.0,0.7396
575.0,0.7255
576.0,0.7189
577.0,0.7269
578.0,0.7163
579.0,0.7196
580.0,0.734
581.0,0.7384
582.0,0.7529
583.0,0.7552
584.0,0.762
585.0,0.7436
586.0,0.7283
587.0,0.7439
588.0,0.7245
589.0,0.6393
590.0,0.6688
591.0,0.7092
592.0,0.6994
593.0,0.7109
594.0,0.7054
595.0,0.6871
596.0,0.7163
597.0,0.708
598.0,0.7069
599.0,0.7078
600.0,0.7094
601.0,0.704
602.0,0.6993
603.0,0.711
604.0,0.7229
605.0,0.7193
606.0,0.7166
607.0,0.7239
608.0,0.7161
609.0,0.7176
610.0,0.7127
611.0,0.7165
612.0,0.7146
613.0,0.7057
614.0,0.6962
615.0,0.7116
616.0,0.6883
617.0,0.687
618.0,0.7136
619.0,0.7064
620.0,0.7109
621.0,0.7114
622.0,0.7029
623.0,0.692
624.0,0.6803
625.0,0.6788
626.0,0.6888
627.0,0.696
628.0,0.6441
629.0,0.6775
630.0,0.6617
631.0,0.6786
632.0,0.6709
633.0,0.6921
634.0,0.686
635.0,0.697
636.0,0.6882
637.0,0.6997
638.0,0.7069
639.0,0.6992
640.0,0.6927
641.0,0.6925
642.0,0.6896
643.0,0.6989
644.0,0.6969
645.0,0.6979
646.0,0.6809
647.0,0.6712
648.0,0.6717
649.0,0.6586
650.0,0.6639
651.0,0.693
652.0,0.662
653.0,0.6839
654.0,0.6765
655.0,0.6502
656.0,0.5771
657.0,0.5927
658.0,0.6649
659.0,0.6699
660.0,0.6728
661.0,0.6776
662.0,0.6786
663.0,0.6653
664.0,0.6738
665.0,0.6748
666.0,0.6755
667.0,0.6751
668.0,0.6757
669.0,0.6863
670.0,0.6834
671.0,0.6833
672.0,0.6776
673.0,0.6879
674.0,0.6854
675.0,0.6793
676.0,0.684
677.0,0.6773
678.0,0.6793
679.0,0.6684
680.0,0.6738
681.0,0.6694
682.0,0.6686
683.0,0.6673
684.0,0.664
685.0,0.6697
686.0,0.6656
687.0,0.4165
688.0,0.5
689.0,0.5022
690.0,0.5308
691.0,0.5633
692.0,0.5876
693.0,0.5824
694.0,0.5777
695.0,0.6048
696.0,0.6057
697.0,0.6466
698.0,0.6365
699.0,0.6187
700.0,0.6112
701.0,0.6041
702.0,0.6092
703.0,0.6105
704.0,0.6315
705.0,0.6325
706.0,0.6325
707.0,0.6332
708.0,0.6345
709.0,0.6364
710.0,0.6359
711.0,0.6354
712.0,0.6339
713.0,0.6271
714.0,0.6296
715.0,0.6087
716.0,0.6088
717.0,0.5187
718.0,0.4752
719.0,0.4345
720.0,0.4543
721.0,0.5071
722.0,0.5861
723.0,0.5426
724.0,0.4852
725.0,0.4762
726.0,0.499
727.0,0.5084
728.0,0.4746
729.0,0.4956
730.0,0.5242
731.0,0.5006
732.0,0.539
733.0,0.5739
734.0,0.5884
735.0,0.5758
736.0,0.575
737.0,0.5772
738.0,0.5885
739.0,0.5768
740.0,0.5926
741.0,0.5871
742.0,0.5881
743.0,0.6032
744.0,0.6018
745.0,0.6021
746.0,0.6049
747.0,0.6062
748.0,0.605
749.0,0.5981
750.0,0.5978
751.0,0.5917
752.0,0.5943
753.0,0.5973
754.0,0.5987
755.0,0.5953
756.0,0.5951
757.0,0.5959
758.0,0.5885
759.0,0.5751
760.0,0.07336
761.0,0.03494
762.0,0.2669
763.0,0.1196
764.0,0.1915
765.0,0.2668
766.0,0.3401
767.0,0.4424
768.0,0.5215
769.0,0.535
770.0,0.5561
771.0,0.5618
772.0,0.5634
773.0,0.5674
774.0,0.5648
775.0,0.5605
776.0,0.5674
777.0,0.5599
778.0,0.5565
779.0,0.557
780.0,0.5539
781.0,0.5545
782.0,0.558
783.0,0.5483
784.0,0.551
785.0,0.5468
786.0,0.5527
787.0,0.5419
788.0,0.5347
789.0,0.5344
790.0,0.5185
791.0,0.5246
792.0,0.5209
793.0,0.5123
794.0,0.5228
795.0,0.5312
796.0,0.5126
797.0,0.5131
798.0,0.5303
799.0,0.5265
800.0,0.5168
801.0,0.5147
802.0,0.5132
803.0,0.509
804.0,0.51
805.0,0.509
806.0,0.5244
807.0,0.5178
808.0,0.5184
809.0,0.5078
810.0,0.5031
811.0,0.5026
812.0,0.4867
813.0,0.4757
814.0,0.4138
815.0,0.4114
816.0,0.3824
817.0,0.3899
818.0,0.3742
819.0,0.4225
820.0,0.3963
821.0,0.4691
822.0,0.4547
823.0,0.3001
824.0,0.4394
825.0,0.4608
826.0,0.4415
827.0,0.4678
828.0,0.3911
829.0,0.4392
830.0,0.4329
831.0,0.4345
832.0,0.4202
833.0,0.4498
834.0,0.432
835.0,0.4786
836.0,0.4556
837.0,0.4801
838.0,0.4639
839.0,0.4732
840.0,0.4839
841.0,0.4764
842.0,0.4783
843.0,0.479
844.0,0.4718
845.0,0.4884
846.0,0.4864
847.0,0.4776
848.0,0.4743
849.0,0.4608
850.0,0.4415
851.0,0.467
852.0,0.464
853.0,0.4469
854.0,0.3856
855.0,0.4241
856.0,0.4632
857.0,0.4738
858.0,0.4702
859.0,0.4708
860.0,0.4718
861.0,0.4692
862.0,0.4766
863.0,0.4879
864.0,0.4635
865.0,0.4595
866.0,0.4132
867.0,0.4312
868.0,0.4692
869.0,0.4595
870.0,0.4726
871.0,0.4662
872.0,0.4645
873.0,0.4636
874.0,0.4581
875.0,0.4488
876.0,0.4534
877.0,0.4581
878.0,0.463
879.0,0.4559
880.0,0.4461
881.0,0.4392
882.0,0.4486
883.0,0.4502
884.0,0.4481
885.0,0.4515
886.0,0.4295
887.0,0.4347
888.0,0.4407
889.0,0.4464
890.0,0.4418
891.0,0.4415
892.0,0.4277
893.0,0.4131
894.0,0.3962
895.0,0.3713
896.0,0.3487
897.0,0.2957
898.0,0.3248
899.0,0.2426
900.0,0.3349
901.0,0.2543
902.0,0.3044
903.0,0.3054
904.0,0.3932
905.0,0.3784
906.0,0.3531
907.0,0.281
908.0,0.2875
909.0,0.3141
910.0,0.2728
911.0,0.2941
912.0,0.3082
913.0,0.2767
914.0,0.2753
915.0,0.2984
916.0,0.2515
917.0,0.3243
918.0,0.2576
919.0,0.3317
920.0,0.3381
921.0,0.3519
922.0,0.311
923.0,0.3402
924.0,0.3181
925.0,0.3113
926.0,0.3144
927.0,0.3555
928.0,0.2505
929.0,0.2259
930.0,0.1731
931.0,0.1645
932.0,0.1139
933.0,0.09028
934.0,0.04481
935.0,0.09424
936.0,0.05582
937.0,0.05629
938.0,0.07038
939.0,0.1593
940.0,0.195
941.0,0.1427
942.0,0.1679
943.0,0.107
944.0,0.116
945.0,0.1481
946.0,0.07075
947.0,0.1475
948.0,0.1078
949.0,0.202
950.0,0.04939
951.0,0.1997
952.0,0.1013
953.0,0.1348
954.0,0.1698
955.0,0.1368
956.0,0.136
957.0,0.101
958.0,0.1985
959.0,0.1525
960.0,0.171
961.0,0.196
962.0,0.185
963.0,0.2168
964.0,0.1975
965.0,0.2162
966.0,0.2155
967.0,0.2142
968.0,0.3002
969.0,0.3121
970.0,0.2851
971.0,0.332
972.0,0.3165
973.0,0.2698
974.0,0.2553
975.0,0.2672
976.0,0.2506
977.0,0.2915
978.0,0.2743
979.0,0.289
980.0,0.2707
981.0,0.3303
982.0,0.3137
983.0,0.3
984.0,0.3428
985.0,0.3125
986.0,0.3503
987.0,0.3417
988.0,0.3412
989.0,0.3502
990.0,0.3391
991.0,0.3511
992.0,0.3533
993.0,0.3437
994.0,0.3534
995.0,0.3532
996.0,0.3513
997.0,0.352
998.0,0.3502
999.0,0.349
1000.0,0.3462
1001.0,0.3509
1002.0,0.3396
1003.0,0.3446
1004.0,0.3358
1005.0,0.3241
1006.0,0.3364
1007.0,0.3437
1008.0,0.3416
1009.0,0.3394
1010.0,0.3378
1011.0,0.342
1012.0,0.3387
1013.0,0.3413
1014.0,0.3389
1015.0,0.3366
1016.0,0.335
1017.0,0.3358
1018.0,0.3348
1019.0,0.327
1020.0,0.3329
1021.0,0.3326
1022.0,0.3297
1023.0,0.3332
1024.0,0.3282
1025.0,0.3332
1026.0,0.3316
1027.0,0.3309
1028.0,0.3301
1029.0,0.3262
1030.0,0.3286
1031.0,0.3272
1032.0,0.3263
1033.0,0.3214
1034.0,0.3214
1035.0,0.3224
1036.0,0.324
1037.0,0.3188
1038.0,0.3202
1039.0,0.32
1040.0,0.3187
1041.0,0.3199
1042.0,0.3176
1043.0,0.3166
1044.0,0.3177
1045.0,0.3133
1046.0,0.3098
1047.0,0.3126
1048.0,0.3142
1049.0,0.313
1050.0,0.3115
1051.0,0.311
1052.0,0.3097
1053.0,0.3072
1054.0,0.3077
1055.0,0.3078
1056.0,0.3066
1057.0,0.3056
1058.0,0.298
1059.0,0.2982
1060.0,0.2977
1061.0,0.2973
1062.0,0.2987
1063.0,0.2957
1064.0,0.2993
1065.0,0.2969
1066.0,0.2912
1067.0,0.2949
1068.0,0.2883
1069.0,0.2795
1070.0,0.2888
1071.0,0.2939
1072.0,0.29
1073.0,0.286
1074.0,0.294
1075.0,0.2775
1076.0,0.2937
1077.0,0.2874
1078.0,0.2816
1079.0,0.2893
1080.0,0.283
1081.0,0.2731
1082.0,0.279
1083.0,0.2802
1084.0,0.272
1085.0,0.2838
1086.0,0.2565
1087.0,0.2665
1088.0,0.2796
1089.0,0.2694
1090.0,0.2624
1091.0,0.2782
1092.0,0.2779
1093.0,0.2309
1094.0,0.2537
1095.0,0.2411
1096.0,0.2295
1097.0,0.2715
1098.0,0.2253
1099.0,0.2357
1100.0,0.2172
1101.0,0.2205
1102.0,0.2094
1103.0,0.2064
1104.0,0.2068
1105.0,0.2299
1106.0,0.1681
1107.0,0.2169
1108.0,0.1792
1109.0,0.1805
1110.0,0.2143
1111.0,0.1392
1112.0,0.1794
1113.0,0.108
1114.0,0.1213
1115.0,0.1002
1116.0,0.07643
1117.0,0.02447
1118.0,0.08429
1119.0,0.03877
1120.0,0.0485
1121.0,0.06616
1122.0,0.02528
1123.0,0.04397
1124.0,0.03707
1125.0,0.04911
1126.0,0.01461
1127.0,0.05563
1128.0,0.03051
1129.0,0.03272
1130.0,0.02066
1131.0,0.1125
1132.0,0.08692
1133.0,0.0513
1134.0,0.01119
1135.0,0.004314
1136.0,0.04148
1137.0,0.1091
1138.0,0.0762
1139.0,0.1213
1140.0,0.09841
1141.0,0.07248
1142.0,0.08488
1143.0,0.1237
1144.0,0.03966
1145.0,0.04954
1146.0,0.05338
1147.0,0.01625
1148.0,0.1069
1149.0,0.08309
1150.0,0.04314
1151.0,0.07558
1152.0,0.09569
1153.0,0.09532
1154.0,0.0478
1155.0,0.1264
1156.0,0.1123
1157.0,0.1286
1158.0,0.1272
1159.0,0.139
1160.0,0.117
1161.0,0.1482
1162.0,0.1486
1163.0,0.2078
1164.0,0.1757
1165.0,0.1633
1166.0,0.164
1167.0,0.1799
1168.0,0.1813
1169.0,0.1864
1170.0,0.2046
1171.0,0.1993
1172.0,0.2042
1173.0,0.2042
1174.0,0.1409
1175.0,0.2005
1176.0,0.223
1177.0,0.2123
1178.0,0.1558
1179.0,0.2249
1180.0,0.1979
1181.0,0.2044
1182.0,0.1371
1183.0,0.2019
1184.0,0.1879
1185.0,0.1801
1186.0,0.2174
1187.0,0.2059
1188.0,0.1388
1189.0,0.1916
1190.0,0.2127
1191.0,0.1996
1192.0,0.2159
1193.0,0.2061
1194.0,0.2129
1195.0,0.1998
1196.0,0.1915
1197.0,0.2138
1198.0,0.1946
1199.0,0.1623
1200.0,0.2034
1201.0,0.195
1202.0,0.1947
1203.0,0.1927
1204.0,0.167
1205.0,0.2002
1206.0,0.2228
1207.0,0.1938
1208.0,0.1917
1209.0,0.1959
1210.0,0.2048
1211.0,0.1939
1212.0,0.1899
1213.0,0.2147
1214.0,0.1952
1215.0,0.1912
1216.0,0.2142
1217.0,0.2079
1218.0,0.2124
1219.0,0.2094
1220.0,0.2127
1221.0,0.2151
1222.0,0.2092
1223.0,0.207
1224.0,0.2052
1225.0,0.2137
1226.0,0.2155
1227.0,0.1972
1228.0,0.217
1229.0,0.2156
1230.0,0.2116
1231.0,0.2187
1232.0,0.2173
1233.0,0.2085
1234.0,0.2188
1235.0,0.2172
1236.0,0.2189
1237.0,0.2153
1238.0,0.2182
1239.0,0.2154
1240.0,0.2162
1241.0,0.2149
1242.0,0.2147
1243.0,0.213
1244.0,0.2144
1245.0,0.2154
1246.0,0.2141
1247.0,0.2132
1248.0,0.2129
1249.0,0.2137
1250.0,0.2123
1251.0,0.2094
1252.0,0.2097
1253.0,0.2075
1254.0,0.2051
1255.0,0.2094
1256.0,0.2026
1257.0,0.2013
1258.0,0.2058
1259.0,0.197
1260.0,0.1982
1261.0,0.1854
1262.0,0.1789
1263.0,0.1792
1264.0,0.1634
1265.0,0.1781
1266.0,0.1702
1267.0,0.174
1268.0,0.1637
1269.0,0.09319
1270.0,0.173
1271.0,0.185
1272.0,0.1858
1273.0,0.1836
1274.0,0.1844
1275.0,0.1874
1276.0,0.1896
1277.0,0.1912
1278.0,0.1956
1279.0,0.1938
1280.0,0.1914
1281.0,0.1829
1282.0,0.1768
1283.0,0.1903
1284.0,0.1947
1285.0,0.1961
1286.0,0.199
1287.0,0.1954
1288.0,0.1955
1289.0,0.1883
1290.0,0.1939
1291.0,0.1968
1292.0,0.1829
1293.0,0.1925
1294.0,0.191
1295.0,0.1895
1296.0,0.1797
1297.0,0.1691
1298.0,0.1839
1299.0,0.1929
1300.0,0.16
1301.0,0.1656
1302.0,0.1834
1303.0,0.1583
1304.0,0.1319
1305.0,0.1794
1306.0,0.1792
1307.0,0.1359
1308.0,0.1591
1309.0,0.1774
1310.0,0.1331
1311.0,0.1518
1312.0,0.1472
1313.0,0.1437
1314.0,0.1276
1315.0,0.1252
1316.0,0.1488
1317.0,0.1406
1318.0,0.1541
1319.0,0.1167
1320.0,0.1139
1321.0,0.1339
1322.0,0.1346
1323.0,0.09823
1324.0,0.1146
1325.0,0.1464
1326.0,0.1237
1327.0,0.1175
1328.0,0.1003
1329.0,0.07257
1330.0,0.09586
1331.0,0.0547
1332.0,0.05752
1333.0,0.08074
1334.0,0.07013
1335.0,0.09774
1336.0,0.07558
1337.0,0.06607
1338.0,0.07143
1339.0,0.07158
1340.0,0.07052
1341.0,0.06676
1342.0,0.07034
1343.0,0.04372
1344.0,0.02649
1345.0,0.03824
1346.0,0.01671
1347.0,0.0166
1348.0,0.0008079
1349.0,0.003138
1350.0,0.003446
1351.0,0.0006445
1352.0,0.0001283
1353.0,4.904e-06
1354.0,2.071e-05
1355.0,8.895e-08
1356.0,2.357e-06
1357.0,3.607e-06
1358.0,1.081e-07
1359.0,8.381e-09
1360.0,4.162e-08
1361.0,1.721e-11
1362.0,3.211e-14
1363.0,4.713e-08
1364.0,1.96e-08
1365.0,6.631e-15
1366.0,2.34e-07
1367.0,1.075e-07
1368.0,2.072e-17
1369.0,7.203e-09
1370.0,2.894e-09
1371.0,1.305e-10
1372.0,5.967e-08
1373.0,1.654e-06
1374.0,9.603e-06
1375.0,1.697e-05
1376.0,1.889e-05
1377.0,8.269e-06
1378.0,8.754e-05
1379.0,3.472e-06
1380.0,4.315e-06
1381.0,1.007e-07
1382.0,5.066e-08
1383.0,6.499e-10
1384.0,7.462e-09
1385.0,6.104e-08
1386.0,3.89e-08
1387.0,8.524e-06
1388.0,1.753e-07
1389.0,3.763e-05
1390.0,3.198e-05
1391.0,2.058e-05
1392.0,1.269e-06
1393.0,7.56e-06
1394.0,2.671e-06
1395.0,1.568e-08
1396.0,2.839e-11
1397.0,2.761e-06
1398.0,9.541e-05
1399.0,6.124e-05
1400.0,9.371e-12
1401.0,5.621e-11
1402.0,0.0002373
1403.0,0.0002795
1404.0,8.267e-05
1405.0,6.401e-09
1406.0,0.0001924
1407.0,1.89e-05
1408.0,0.0001608
1409.0,4.492e-05
1410.0,4.138e-05
1411.0,0.0002491
1412.0,0.0003672
1413.0,0.004842
1414.0,3.351e-05
1415.0,1.481e-05
1416.0,0.009444
1417.0,0.002413
1418.0,0.002628
1419.0,0.0003916
1420.0,0.001595
1421.0,0.001762
1422.0,0.0124
1423.0,0.002298
1424.0,0.004445
1425.0,0.006284
1426.0,0.007718
1427.0,0.01548
1428.0,0.0007381
1429.0,0.0109
1430.0,0.02036
1431.0,0.02283
1432.0,0.0005737
1433.0,0.01391
1434.0,0.00678
1435.0,0.005793
1436.0,0.01267
1437.0,0.009757
