interpolation:linear
wavelength,value
280.0,1.085e-20
280.5,3.249e-19
281.0,1.689e-18
281.5,4.499e-19
282.0,1.511e-18
282.5,4.048e-18
283.0,1.314e-17
283.5,2.151e-17
284.0,3.412e-16
284.5,9.715e-16
285.0,1.865e-15
285.5,9.993e-15
286.0,4.09e-14
286.5,1.853e-13
287.0,5.304e-13
287.5,2.019e-12
288.0,5.378e-12
288.5,1.956e-11
289.0,6.002e-11
289.5,2.043e-10
290.0,6.161e-10
290.5,1.338e-09
291.0,3.076e-09
291.5,9.65e-09
292.0,2.333e-08
292.5,3.699e-08
293.0,9.314e-08
293.5,2.85e-07
294.0,5.293e-07
294.5,7.113e-07
295.0,1.433e-06
295.5,3.92e-06
296.0,7.741e-06
296.5,1.109e-05
297.0,1.531e-05
297.5,4.229e-05
298.0,6.84e-05
298.5,7.025e-05
299.0,0.0001581
299.5,0.000272
300.0,0.0003058
300.5,0.0004535
301.0,0.000855
301.5,0.001424
302.0,0.001251
302.5,0.002413
303.0,0.00426
303.5,0.005301
304.0,0.004936
304.5,0.007189
305.0,0.01053
305.5,0.01179
306.0,0.01132
306.5,0.01389
307.0,0.01996
307.5,0.02573
308.0,0.02704
308.5,0.03145
309.0,0.03066
309.5,0.03434
310.0,0.03415
310.5,0.05504
311.0,0.06852
311.5,0.06591
312.0,0.0647
312.5,0.07777
313.0,0.08381
313.5,0.08189
314.0,0.1009
314.5,0.08766
315.0,0.1148
315.5,0.09697
316.0,0.08331
316.5,0.1179
317.0,0.1465
317.5,0.1531
318.0,0.1183
318.5,0.1441
319.0,0.1694
319.5,0.1402
320.0,0.1698
320.5,0.2084
321.0,0.1823
321.5,0.1745
322.0,0.1896
322.5,0.1648
323.0,0.1621
323.5,0.1969
324.0,0.2294
324.5,0.2341
325.0,0.2035
325.5,0.2591
326.0,0.316
326.5,0.3143
327.0,0.314
327.5,0.3043
328.0,0.2734
328.5,0.2843
329.0,0.3374
329.5,0.382
330.0,0.3862
330.5,0.3112
331.0,0.3178
331.5,0.3214
332.0,0.3447
332.5,0.3398
333.0,0.3395
333.5,0.309
334.0,0.3168
334.5,0.3634
335.0,0.3403
335.5,0.3974
336.0,0.275
336.5,0.3226
337.0,0.2654
337.5,0.3304
338.0,0.321
338.5,0.3704
339.0,0.3666
339.5,0.3527
340.0,0.4146
340.5,0.3736
341.0,0.3644
341.5,0.3345
342.0,0.3998
342.5,0.374
343.0,0.4114
343.5,0.3875
344.0,0.2864
344.5,0.2893
345.0,0.3828
345.5,0.3908
346.0,0.3321
346.5,0.3761
347.0,0.4038
347.5,0.3265
348.0,0.3722
348.5,0.372
349.0,0.3451
349.5,0.3418
350.0,0.4227
350.5,0.4459
351.0,0.3984
351.5,0.3873
352.0,0.416
352.5,0.3246
353.0,0.4089
353.5,0.4373
354.0,0.454
354.5,0.4604
355.0,0.4589
355.5,0.4146
356.0,0.4338
356.5,0.3705
357.0,0.3061
357.5,0.3748
358.0,0.2971
358.5,0.2539
359.0,0.3551
359.5,0.4526
360.0,0.4799
360.5,0.3836
361.0,0.3497
361.5,0.4027
362.0,0.3483
362.5,0.482
363.0,0.433
363.5,0.3989
364.0,0.4879
364.5,0.417
365.0,0.4248
365.5,0.5332
366.0,0.565
366.5,0.5309
367.0,0.5171
367.5,0.5367
368.0,0.4697
368.5,0.474
369.0,0.5119
369.5,0.5457
370.0,0.5818
370.5,0.4516
371.0,0.4826
371.5,0.6039
372.0,0.4008
372.5,0.4807
373.0,0.489
373.5,0.3182
374.0,0.4624
374.5,0.383
375.0,0.3724
375.5,0.556
376.0,0.4609
376.5,0.4777
377.0,0.5059
377.5,0.5919
378.0,0.6417
378.5,0.6066
379.0,0.5006
379.5,0.4574
380.0,0.4756
380.5,0.5761
381.0,0.5774
381.5,0.4577
382.0,0.4066
382.5,0.3466
383.0,0.3209
383.5,0.3092
384.0,0.3411
384.5,0.5017
385.0,0.4976
385.5,0.4635
386.0,0.397
386.5,0.5216
387.0,0.4334
387.5,0.4869
388.0,0.4496
388.5,0.4445
389.0,0.4799
389.5,0.5813
390.0,0.5834
390.5,0.537
391.0,0.6322
391.5,0.6449
392.0,0.5432
392.5,0.4864
393.0,0.2707
393.5,0.1968
394.0,0.4005
394.5,0.5092
395.0,0.6214
395.5,0.6313
396.0,0.5474
396.5,0.32
397.0,0.2402
397.5,0.4886
398.0,0.6843
398.5,0.7073
399.0,0.766
399.5,0.7636
400.0,0.793
401.0,0.8049
402.0,0.8494
403.0,0.807
404.0,0.7947
405.0,0.7947
406.0,0.7819
407.0,0.7694
408.0,0.7996
409.0,0.856
410.0,0.748
411.0,0.8103
412.0,0.8705
413.0,0.849
414.0,0.8595
415.0,0.8619
416.0,0.877
417.0,0.8556
418.0,0.8399
419.0,0.851
420.0,0.8474
421.0,0.8866
422.0,0.8427
423.0,0.8233
424.0,0.8709
425.0,0.8694
426.0,0.8469
427.0,0.8311
428.0,0.8097
429.0,0.767
430.0,0.6713
431.0,0.6654
432.0,0.8592
433.0,0.864
434.0,0.8023
435.0,0.838
436.0,0.9443
437.0,0.9316
438.0,0.8483
439.0,0.8775
440.0,0.9055
441.0,0.9383
442.0,1.006
443.0,0.9804
444.0,1.002
445.0,0.98
446.0,0.9353
447.0,1.011
448.0,1.027
449.0,1.031
450.0,1.06
451.0,1.099
452.0,1.059
453.0,0.9961
454.0,1.04
455.0,1.046
456.0,1.071
457.0,1.089
458.0,1.052
459.0,1.047
460.0,1.049
461.0,1.074
462.0,1.082
463.0,1.074
464.0,1.057
465.0,1.043
466.0,1.053
467.0,1.034
468.0,1.046
469.0,1.052
470.0,1.018
471.0,1.017
472.0,1.071
473.0,1.058
474.0,1.059
475.0,1.068
476.0,1.037
477.0,1.04
478.0,1.068
479.0,1.062
480.0,1.064
481.0,1.084
482.0,1.089
483.0,1.076
484.0,1.054
485.0,1.004
486.0,0.8775
487.0,0.9196
488.0,1.009
489.0,1.012
490.0,1.065
491.0,1.046
492.0,0.988
493.0,1.02
494.0,1.031
495.0,1.039
496.0,1.046
497.0,1.062
498.0,1.012
499.0,1.025
500.0,0.9956
501.0,0.9774
502.0,0.9638
503.0,1.003
504.0,0.9783
505.0,1.013
506.0,1.046
507.0,0.995
508.0,0.9638
509.0,0.9907
510.0,0.9854
511.0,1.012
512.0,1.023
513.0,0.9679
514.0,0.9612
515.0,0.9516
516.0,0.9493
517.0,0.8435
518.0,0.8868
519.0,0.9302
520.0,0.964
521.0,0.9732
522.0,0.9741
523.0,0.9566
524.0,0.9909
525.0,1.003
526.0,0.9579
527.0,0.9028
528.0,0.9549
529.0,1.007
530.0,0.9921
531.0,1.007
532.0,0.9723
533.0,0.9438
534.0,0.9717
535.0,0.9928
536.0,1.002
537.0,0.9623
538.0,0.9793
539.0,0.9711
540.0,0.9311
541.0,0.9374
542.0,0.9668
543.0,0.9565
544.0,0.9732
545.0,0.9702
546.0,0.9746
547.0,0.974
548.0,0.9623
549.0,0.9652
550.0,0.9767
551.0,0.9648
552.0,0.9715
553.0,0.9541
554.0,0.977
555.0,0.979
556.0,0.9663
557.0,0.9363
558.0,0.9293
559.0,0.912
560.0,0.9235
561.0,0.9355
562.0,0.9288
563.0,0.9543
564.0,0.9284
565.0,0.9204
566.0,0.907
567.0,0.9243
568.0,0.9163
569.0,0.8949
570.0,0.8946
571.0,0.8891
572.0,0.9108
573.0,0.9205
574.0,0.9177
575.0,0.9006
576.0,0.8924
577.0,0.9021
578.0,0.8884
579.0,0.8917
580.0,0.9084
581.0,0.9128
582.0,0.9299
583.0,0.932
584.0,0.94
585.0,0.917
586.0,0.8981
587.0,0.9179
588.0,0.8962
589.0,0.7951
590.0,0.8314
591.0,0.8791
592.0,0.8683
593.0,0.8807
594.0,0.8748
595.0,0.8536
596.0,0.8864
597.0,0.877
598.0,0.8745
599.0,0.8751
600.0,0.8762
601.0,0.8689
602.0,0.863
603.0,0.8771
604.0,0.8916
605.0,0.887
606.0,0.8832
607.0,0.8919
608.0,0.8819
609.0,0.8834
610.0,0.877
611.0,0.8815
612.0,0.8789
613.0,0.8678
614.0,0.8559
615.0,0.8744
616.0,0.8456
617.0,0.8438
618.0,0.8762
619.0,0.8673
620.0,0.8728
621.0,0.8737
622.0,0.8636
623.0,0.8505
624.0,0.8359
625.0,0.834
626.0,0.8463
627.0,0.856
628.0,0.8016
629.0,0.8365
630.0,0.8173
631.0,0.835
632.0,0.8249
633.0,0.8497
634.0,0.8411
635.0,0.8541
636.0,0.8427
637.0,0.8564
638.0,0.8645
639.0,0.8547
640.0,0.8463
641.0,0.8457
642.0,0.8418
643.0,0.8531
644.0,0.8502
645.0,0.8516
646.0,0.832
647.0,0.8228
648.0,0.8236
649.0,0.8077
650.0,0.8108
651.0,0.8458
652.0,0.8114
653.0,0.8346
654.0,0.8252
655.0,0.7949
656.0,0.7042
657.0,0.7231
658.0,0.8102
659.0,0.8159
660.0,0.8192
661.0,0.825
662.0,0.8268
663.0,0.8104
664.0,0.8198
665.0,0.8203
666.0,0.8208
667.0,0.82
668.0,0.8202
669.0,0.8329
670.0,0.8292
671.0,0.829
672.0,0.8219
673.0,0.8342
674.0,0.8311
675.0,0.8235
676.0,0.8291
677.0,0.8209
678.0,0.8232
679.0,0.8098
680.0,0.8163
681.0,0.8109
682.0,0.8099
683.0,0.8083
684.0,0.8043
685.0,0.8111
686.0,0.8064
687.0,0.5447
688.0,0.6339
689.0,0.6361
690.0,0.6657
691.0,0.6989
692.0,0.723
693.0,0.7172
694.0,0.7112
695.0,0.7395
696.0,0.7406
697.0,0.7845
698.0,0.7723
699.0,0.7548
700.0,0.7457
701.0,0.7384
702.0,0.7432
703.0,0.7445
704.0,0.7678
705.0,0.769
706.0,0.7681
707.0,0.7686
708.0,0.7702
709.0,0.771
710.0,0.7711
711.0,0.77
712.0,0.7675
713.0,0.7599
714.0,0.7627
715.0,0.739
716.0,0.7395
717.0,0.6448
718.0,0.5928
719.0,0.5433
720.0,0.5694
721.0,0.6265
722.0,0.7145
723.0,0.6663
724.0,0.6017
725.0,0.5925
726.0,0.62
727.0,0.628
728.0,0.5912
729.0,0.6121
730.0,0.6477
731.0,0.62
732.0,0.6619
733.0,0.6995
734.0,0.7157
735.0,0.7011
736.0,0.7002
737.0,0.703
738.0,0.713
739.0,0.699
740.0,0.7169
741.0,0.7097
742.0,0.7102
743.0,0.7282
744.0,0.726
745.0,0.7261
746.0,0.7294
747.0,0.731
748.0,0.7295
749.0,0.7212
750.0,0.7207
751.0,0.7134
752.0,0.7165
753.0,0.7201
754.0,0.7217
755.0,0.7176
756.0,0.7173
757.0,0.7183
758.0,0.7094
759.0,0.6955
760.0,0.1235
761.0,0.0662
762.0,0.364
763.0,0.1861
764.0,0.2761
765.0,0.3641
766.0,0.4433
767.0,0.5557
768.0,0.6384
769.0,0.6512
770.0,0.6726
771.0,0.6777
772.0,0.679
773.0,0.6837
774.0,0.6804
775.0,0.6752
776.0,0.6834
777.0,0.6744
778.0,0.6703
779.0,0.6709
780.0,0.6671
781.0,0.6678
782.0,0.672
783.0,0.6603
784.0,0.6634
785.0,0.6585
786.0,0.6658
787.0,0.6545
788.0,0.6465
789.0,0.6463
790.0,0.6296
791.0,0.6346
792.0,0.6298
793.0,0.6197
794.0,0.6298
795.0,0.6406
796.0,0.6215
797.0,0.6223
798.0,0.6399
799.0,0.6359
800.0,0.625
801.0,0.6232
802.0,0.6214
803.0,0.6168
804.0,0.6175
805.0,0.6154
806.0,0.6324
807.0,0.6248
808.0,0.6254
809.0,0.6139
810.0,0.609
811.0,0.6101
812.0,0.593
813.0,0.581
814.0,0.5125
815.0,0.5093
816.0,0.4742
817.0,0.4828
818.0,0.465
819.0,0.5187
820.0,0.4889
821.0,0.5699
822.0,0.5538
823.0,0.3792
824.0,0.5383
825.0,0.56
826.0,0.5393
827.0,0.5686
828.0,0.4835
829.0,0.5359
830.0,0.529
831.0,0.5308
832.0,0.5148
833.0,0.547
834.0,0.5281
835.0,0.5792
836.0,0.555
837.0,0.5808
838.0,0.5629
839.0,0.5719
840.0,0.5844
841.0,0.5762
842.0,0.5773
843.0,0.5768
844.0,0.5689
845.0,0.588
846.0,0.5854
847.0,0.5744
848.0,0.5709
849.0,0.5547
850.0,0.5314
851.0,0.5627
852.0,0.5588
853.0,0.5378
854.0,0.4644
855.0,0.5101
856.0,0.5575
857.0,0.5699
858.0,0.5657
859.0,0.5662
860.0,0.5672
861.0,0.5641
862.0,0.5729
863.0,0.5865
864.0,0.5572
865.0,0.5523
866.0,0.4966
867.0,0.5182
868.0,0.5639
869.0,0.5522
870.0,0.568
871.0,0.5602
872.0,0.5583
873.0,0.5571
874.0,0.5505
875.0,0.5393
876.0,0.545
877.0,0.5505
878.0,0.5564
879.0,0.5479
880.0,0.5362
881.0,0.5281
882.0,0.5395
883.0,0.5412
884.0,0.5388
885.0,0.5428
886.0,0.5174
887.0,0.5228
888.0,0.5306
889.0,0.5366
890.0,0.5321
891.0,0.5312
892.0,0.5159
893.0,0.4998
894.0,0.4823
895.0,0.4559
896.0,0.4295
897.0,0.3691
898.0,0.4027
899.0,0.3065
900.0,0.4122
901.0,0.3213
902.0,0.3768
903.0,0.3806
904.0,0.4787
905.0,0.4623
906.0,0.4327
907.0,0.3517
908.0,0.3587
909.0,0.3885
910.0,0.3437
911.0,0.3662
912.0,0.3828
913.0,0.3488
914.0,0.3458
915.0,0.3749
916.0,0.3173
917.0,0.4026
918.0,0.3253
919.0,0.4099
920.0,0.4141
921.0,0.4306
922.0,0.385
923.0,0.416
924.0,0.3946
925.0,0.386
926.0,0.3902
927.0,0.4369
928.0,0.3203
929.0,0.2923
930.0,0.2295
931.0,0.2175
932.0,0.1563
933.0,0.1268
934.0,0.06912
935.0,0.13
936.0,0.08086
937.0,0.08192
938.0,0.1009
939.0,0.2107
940.0,0.2537
941.0,0.1911
942.0,0.2216
943.0,0.1454
944.0,0.1534
945.0,0.1971
946.0,0.09985
947.0,0.1979
948.0,0.1453
949.0,0.2654
950.0,0.07296
951.0,0.2615
952.0,0.1398
953.0,0.181
954.0,0.2224
955.0,0.1831
956.0,0.1781
957.0,0.1399
958.0,0.253
959.0,0.2004
960.0,0.2247
961.0,0.2526
962.0,0.2389
963.0,0.2759
964.0,0.2526
965.0,0.2749
966.0,0.2748
967.0,0.2736
968.0,0.3683
969.0,0.3846
970.0,0.353
971.0,0.4047
972.0,0.387
973.0,0.3363
974.0,0.3191
975.0,0.3315
976.0,0.3144
977.0,0.3585
978.0,0.3403
979.0,0.3566
980.0,0.3352
981.0,0.4024
982.0,0.3845
983.0,0.369
984.0,0.4149
985.0,0.3831
986.0,0.4223
987.0,0.4139
988.0,0.4131
989.0,0.4212
990.0,0.4107
991.0,0.4224
992.0,0.4249
993.0,0.4152
994.0,0.4247
995.0,0.4243
996.0,0.4223
997.0,0.423
998.0,0.421
999.0,0.4194
1000.0,0.4164
1001.0,0.4217
1002.0,0.4099
1003.0,0.4142
1004.0,0.404
1005.0,0.3893
1006.0,0.4045
1007.0,0.4131
1008.0,0.4108
1009.0,0.4086
1010.0,0.4068
1011.0,0.411
1012.0,0.4074
1013.0,0.41
1014.0,0.4071
1015.0,0.4044
1016.0,0.4026
1017.0,0.4036
1018.0,0.4021
1019.0,0.3935
1020.0,0.4
1021.0,0.3995
1022.0,0.3963
1023.0,0.4005
1024.0,0.3952
1025.0,0.4003
1026.0,0.3985
1027.0,0.3976
1028.0,0.3968
1029.0,0.3921
1030.0,0.3948
1031.0,0.3932
1032.0,0.3921
1033.0,0.3862
1034.0,0.3862
1035.0,0.3874
1036.0,0.3894
1037.0,0.3831
1038.0,0.3848
1039.0,0.3845
1040.0,0.383
1041.0,0.3845
1042.0,0.3818
1043.0,0.3806
1044.0,0.3819
1045.0,0.3767
1046.0,0.3726
1047.0,0.3759
1048.0,0.378
1049.0,0.3766
1050.0,0.3749
1051.0,0.3743
1052.0,0.3728
1053.0,0.3698
1054.0,0.3706
1055.0,0.3708
1056.0,0.3695
1057.0,0.3683
1058.0,0.3593
1059.0,0.3596
1060.0,0.3591
1061.0,0.3587
1062.0,0.3605
1063.0,0.3569
1064.0,0.3612
1065.0,0.3585
1066.0,0.3515
1067.0,0.356
1068.0,0.3482
1069.0,0.3375
1070.0,0.3489
1071.0,0.3544
1072.0,0.3503
1073.0,0.3452
1074.0,0.3542
1075.0,0.3363
1076.0,0.3539
1077.0,0.3475
1078.0,0.3408
1079.0,0.3483
1080.0,0.3421
1081.0,0.331
1082.0,0.3366
1083.0,0.3376
1084.0,0.3302
1085.0,0.3429
1086.0,0.3126
1087.0,0.3229
1088.0,0.3372
1089.0,0.3267
1090.0,0.3193
1091.0,0.3361
1092.0,0.3353
1093.0,0.2836
1094.0,0.3067
1095.0,0.2956
1096.0,0.2829
1097.0,0.3275
1098.0,0.2784
1099.0,0.2905
1100.0,0.2697
1101.0,0.2732
1102.0,0.2608
1103.0,0.2581
1104.0,0.2585
1105.0,0.2838
1106.0,0.216
1107.0,0.2693
1108.0,0.2276
1109.0,0.2282
1110.0,0.2668
1111.0,0.1801
1112.0,0.2265
1113.0,0.1433
1114.0,0.1602
1115.0,0.1328
1116.0,0.1054
1117.0,0.03807
1118.0,0.1149
1119.0,0.05648
1120.0,0.07106
1121.0,0.09465
1122.0,0.03935
1123.0,0.06424
1124.0,0.05421
1125.0,0.07086
1126.0,0.02418
1127.0,0.07998
1128.0,0.04731
1129.0,0.05028
1130.0,0.03287
1131.0,0.153
1132.0,0.1198
1133.0,0.07519
1134.0,0.01881
1135.0,0.007071
1136.0,0.06247
1137.0,0.15
1138.0,0.1055
1139.0,0.1587
1140.0,0.1321
1141.0,0.1003
1142.0,0.1157
1143.0,0.1648
1144.0,0.05691
1145.0,0.07254
1146.0,0.07823
1147.0,0.027
1148.0,0.1426
1149.0,0.1135
1150.0,0.06128
1151.0,0.1047
1152.0,0.1294
1153.0,0.1264
1154.0,0.07022
1155.0,0.1656
1156.0,0.1488
1157.0,0.1674
1158.0,0.1656
1159.0,0.1789
1160.0,0.1526
1161.0,0.1885
1162.0,0.1894
1163.0,0.2564
1164.0,0.2197
1165.0,0.2071
1166.0,0.2058
1167.0,0.2242
1168.0,0.2267
1169.0,0.2321
1170.0,0.2523
1171.0,0.246
1172.0,0.2505
1173.0,0.2518
1174.0,0.1798
1175.0,0.246
1176.0,0.2704
1177.0,0.2596
1178.0,0.195
1179.0,0.2726
1180.0,0.2433
1181.0,0.2511
1182.0,0.1734
1183.0,0.2473
1184.0,0.2318
1185.0,0.2237
1186.0,0.265
1187.0,0.2525
1188.0,0.1763
1189.0,0.2352
1190.0,0.259
1191.0,0.2461
1192.0,0.2626
1193.0,0.2517
1194.0,0.2594
1195.0,0.2454
1196.0,0.2365
1197.0,0.2595
1198.0,0.2375
1199.0,0.2023
1200.0,0.2485
1201.0,0.2398
1202.0,0.2384
1203.0,0.2364
1204.0,0.2069
1205.0,0.2438
1206.0,0.2692
1207.0,0.2378
1208.0,0.234
1209.0,0.2387
1210.0,0.2486
1211.0,0.2369
1212.0,0.2342
1213.0,0.2604
1214.0,0.2398
1215.0,0.2353
1216.0,0.2595
1217.0,0.2528
1218.0,0.2575
1219.0,0.2543
1220.0,0.2577
1221.0,0.2602
1222.0,0.2535
1223.0,0.2512
1224.0,0.2497
1225.0,0.2586
1226.0,0.2602
1227.0,0.2403
1228.0,0.2615
1229.0,0.2603
1230.0,0.2559
1231.0,0.263
1232.0,0.2614
1233.0,0.2526
1234.0,0.2627
1235.0,0.2611
1236.0,0.263
1237.0,0.2594
1238.0,0.2621
1239.0,0.2587
1240.0,0.2597
1241.0,0.2585
1242.0,0.2579
1243.0,0.2558
1244.0,0.2576
1245.0,0.2587
1246.0,0.2572
1247.0,0.2562
1248.0,0.2561
1249.0,0.2569
1250.0,0.2553
1251.0,0.2521
1252.0,0.2521
1253.0,0.2501
1254.0,0.2477
1255.0,0.2518
1256.0,0.2449
1257.0,0.2436
1258.0,0.248
1259.0,0.2392
1260.0,0.2405
1261.0,0.2272
1262.0,0.2205
1263.0,0.2209
1264.0,0.2042
1265.0,0.2195
1266.0,0.2114
1267.0,0.215
1268.0,0.2041
1269.0,0.1277
1270.0,0.2142
1271.0,0.2264
1272.0,0.2271
1273.0,0.2247
1274.0,0.2254
1275.0,0.2286
1276.0,0.2308
1277.0,0.2323
1278.0,0.2367
1279.0,0.2345
1280.0,0.2316
1281.0,0.2209
1282.0,0.2128
1283.0,0.2292
1284.0,0.2347
1285.0,0.2362
1286.0,0.2394
1287.0,0.2357
1288.0,0.2357
1289.0,0.2284
1290.0,0.2336
1291.0,0.2368
1292.0,0.2228
1293.0,0.2323
1294.0,0.2307
1295.0,0.2296
1296.0,0.2194
1297.0,0.2076
1298.0,0.2232
1299.0,0.2325
1300.0,0.1973
1301.0,0.2032
1302.0,0.2225
1303.0,0.1946
1304.0,0.1664
1305.0,0.218
1306.0,0.218
1307.0,0.1698
1308.0,0.1949
1309.0,0.2164
1310.0,0.1666
1311.0,0.1869
1312.0,0.1819
1313.0,0.1784
1314.0,0.1598
1315.0,0.1578
1316.0,0.184
1317.0,0.1743
1318.0,0.1894
1319.0,0.1483
1320.0,0.1437
1321.0,0.1672
1322.0,0.1689
1323.0,0.1273
1324.0,0.1455
1325.0,0.1814
1326.0,0.1558
1327.0,0.1486
1328.0,0.1282
1329.0,0.09637
1330.0,0.1254
1331.0,0.07571
1332.0,0.07819
1333.0,0.1088
1334.0,0.09218
1335.0,0.1268
1336.0,0.1003
1337.0,0.08866
1338.0,0.09596
1339.0,0.09554
1340.0,0.09293
1341.0,0.09072
1342.0,0.09529
1343.0,0.06441
1344.0,0.03858
1345.0,0.05565
1346.0,0.02754
1347.0,0.02798
1348.0,0.001811
1349.0,0.006513
1350.0,0.00677
1351.0,0.001642
1352.0,0.0004434
1353.0,2.265e-05
1354.0,7.803e-05
1355.0,6.311e-07
1356.0,1.107e-05
1357.0,1.686e-05
1358.0,7.474e-07
1359.0,9.453e-08
1360.0,3.424e-07
1361.0,3.85e-10
1362.0,1.057e-12
1363.0,4.646e-07
1364.0,1.924e-07
1365.0,3.729e-13
1366.0,2.031e-06
1367.0,8.312e-07
1368.0,2.911e-15
1369.0,7.194e-08
1370.0,3.555e-08
1371.0,2.022e-09
1372.0,4.574e-07
1373.0,9.236e-06
1374.0,4.294e-05
1375.0,7.811e-05
1376.0,7.022e-05
1377.0,3.217e-05
1378.0,0.0003154
1379.0,1.352e-05
1380.0,1.949e-05
1381.0,5.094e-07
1382.0,4.128e-07
1383.0,6.191e-09
1384.0,8.143e-08
1385.0,3.901e-07
1386.0,3.683e-07
1387.0,4.461e-05
1388.0,8.8e-07
1389.0,0.0001514
1390.0,0.0001303
1391.0,8.693e-05
1392.0,5.652e-06
1393.0,3.002e-05
1394.0,1.553e-05
1395.0,1.142e-07
1396.0,5.546e-10
1397.0,1.196e-05
1398.0,0.0003544
1399.0,0.0002248
1400.0,2.4e-10
1401.0,9.979e-10
1402.0,0.0006277
1403.0,0.0007886
1404.0,0.0002403
1405.0,5.565e-08
1406.0,0.0006247
1407.0,5.521e-05
1408.0,0.0005112
1409.0,0.0001709
1410.0,0.0001372
1411.0,0.0006936
1412.0,0.0009383
1413.0,0.009788
1414.0,0.0001083
1415.0,5.189e-05
1416.0,0.01631
1417.0,0.004831
1418.0,0.005486
1419.0,0.0008467
1420.0,0.003353
1421.0,0.003627
1422.0,0.02132
1423.0,0.004101
1424.0,0.007718
1425.0,0.01131
1426.0,0.01297
1427.0,0.0242
1428.0,0.001699
1429.0,0.01792
1430.0,0.031
1431.0,0.03418
1432.0,0.001336
1433.0,0.02156
1434.0,0.01088
1435.0,0.01057
1436.0,0.02088
1437.0,0.01601
1438.0,0.006627
1439.0,0.02861
1440.0,0.02142
1441.0,0.01606
1442.0,0.01785
1443.0,0.02283
1444.0,0.03186
