interpolation:linear
wavelength,value
280.0,3.978e-21
280.5,1.235e-19
281.0,6.498e-19
281.5,4.327e-19
282.0,1.199e-18
282.5,3.124e-18
283.0,1.003e-17
283.5,1.639e-17
284.0,2.635e-16
284.5,7.57e-16
285.0,1.661e-15
285.5,8.204e-15
286.0,3.293e-14
286.5,1.457e-13
287.0,4.126e-13
287.5,1.56e-12
288.0,4.045e-12
288.5,1.372e-11
289.0,3.958e-11
289.5,1.27e-10
290.0,3.663e-10
290.5,7.672e-10
291.0,1.691e-09
291.5,5.261e-09
292.0,1.151e-08
292.5,1.756e-08
293.0,4.192e-08
293.5,1.183e-07
294.0,2.06e-07
294.5,2.673e-07
295.0,5.04e-07
295.5,1.361e-06
296.0,2.726e-06
296.5,3.971e-06
297.0,5.572e-06
297.5,1.583e-05
298.0,2.63e-05
298.5,2.763e-05
299.0,6.37e-05
299.5,0.0001147
300.0,0.0001326
300.5,0.0002028
301.0,0.0004047
301.5,0.000717
302.0,0.0006543
302.5,0.001285
303.0,0.002322
303.5,0.002935
304.0,0.002764
304.5,0.004143
305.0,0.006314
305.5,0.007251
306.0,0.007025
306.5,0.00876
307.0,0.01302
307.5,0.01733
308.0,0.01832
308.5,0.02164
309.0,0.02127
309.5,0.02431
310.0,0.02441
310.5,0.03953
311.0,0.0496
311.5,0.04788
312.0,0.04781
312.5,0.05812
313.0,0.06301
313.5,0.06124
314.0,0.07646
314.5,0.06766
315.0,0.0889
315.5,0.07446
316.0,0.06492
316.5,0.09306
317.0,0.1156
317.5,0.1204
318.0,0.09378
318.5,0.1161
319.0,0.1376
319.5,0.1125
320.0,0.136
320.5,0.1697
321.0,0.1507
321.5,0.1445
322.0,0.1545
322.5,0.1344
323.0,0.1336
323.5,0.1639
324.0,0.1912
324.5,0.1943
325.0,0.1681
325.5,0.2158
326.0,0.2638
326.5,0.2639
327.0,0.2632
327.5,0.2544
328.0,0.227
328.5,0.2381
329.0,0.2845
329.5,0.3228
330.0,0.3258
330.5,0.2612
331.0,0.2664
331.5,0.2705
332.0,0.2917
332.5,0.2884
333.0,0.2877
333.5,0.2608
334.0,0.2673
334.5,0.308
335.0,0.2892
335.5,0.3379
336.0,0.2338
336.5,0.274
337.0,0.225
337.5,0.2799
338.0,0.273
338.5,0.3152
339.0,0.312
339.5,0.3002
340.0,0.3529
340.5,0.3181
341.0,0.3103
341.5,0.285
342.0,0.3406
342.5,0.3188
343.0,0.3506
343.5,0.3302
344.0,0.2441
344.5,0.2466
345.0,0.3264
345.5,0.3333
346.0,0.2834
346.5,0.3209
347.0,0.3446
347.5,0.2787
348.0,0.3178
348.5,0.3177
349.0,0.2948
349.5,0.292
350.0,0.3612
350.5,0.3811
351.0,0.3405
351.5,0.331
352.0,0.3556
352.5,0.2776
353.0,0.3497
353.5,0.374
354.0,0.3884
354.5,0.3939
355.0,0.3927
355.5,0.3548
356.0,0.3714
356.5,0.3171
357.0,0.2621
357.5,0.3209
358.0,0.2544
358.5,0.2174
359.0,0.3042
359.5,0.3877
360.0,0.411
360.5,0.3286
361.0,0.2996
361.5,0.3451
362.0,0.2986
362.5,0.4134
363.0,0.3714
363.5,0.3422
364.0,0.4186
364.5,0.3579
365.0,0.3646
365.5,0.4577
366.0,0.4851
366.5,0.4559
367.0,0.4441
367.5,0.461
368.0,0.4035
368.5,0.4073
369.0,0.4399
369.5,0.469
370.0,0.5001
370.5,0.3883
371.0,0.415
371.5,0.5193
372.0,0.3447
372.5,0.4135
373.0,0.4207
373.5,0.2738
374.0,0.3979
374.5,0.3296
375.0,0.3205
375.5,0.4786
376.0,0.3968
376.5,0.4113
377.0,0.4356
377.5,0.5098
378.0,0.5527
378.5,0.5225
379.0,0.4313
379.5,0.394
380.0,0.4097
380.5,0.4964
381.0,0.4976
381.5,0.3946
382.0,0.3505
382.5,0.2989
383.0,0.2768
383.5,0.2667
384.0,0.2943
384.5,0.4329
385.0,0.4294
385.5,0.4
386.0,0.3427
386.5,0.4503
387.0,0.3742
387.5,0.4204
388.0,0.3883
388.5,0.3839
389.0,0.4145
389.5,0.5022
390.0,0.5041
390.5,0.464
391.0,0.5464
391.5,0.5574
392.0,0.4696
392.5,0.4205
393.0,0.234
393.5,0.1702
394.0,0.3463
394.5,0.4405
395.0,0.5376
395.5,0.5462
396.0,0.4736
396.5,0.277
397.0,0.2079
397.5,0.4229
398.0,0.5923
398.5,0.6123
399.0,0.6633
399.5,0.6613
400.0,0.6867
401.0,0.6963
402.0,0.735
403.0,0.6985
404.0,0.688
405.0,0.6882
406.0,0.6773
407.0,0.6666
408.0,0.6928
409.0,0.7418
410.0,0.6484
411.0,0.7026
412.0,0.7549
413.0,0.7364
414.0,0.7457
415.0,0.7479
416.0,0.7613
417.0,0.7428
418.0,0.7293
419.0,0.7391
420.0,0.736
421.0,0.7702
422.0,0.7323
423.0,0.7155
424.0,0.7569
425.0,0.7558
426.0,0.7365
427.0,0.7229
428.0,0.7043
429.0,0.6674
430.0,0.5842
431.0,0.5791
432.0,0.7479
433.0,0.7522
434.0,0.6986
435.0,0.7297
436.0,0.8225
437.0,0.8116
438.0,0.7393
439.0,0.7646
440.0,0.7891
441.0,0.8179
442.0,0.8773
443.0,0.8546
444.0,0.8733
445.0,0.8545
446.0,0.8157
447.0,0.8821
448.0,0.8959
449.0,0.8997
450.0,0.925
451.0,0.9595
452.0,0.9245
453.0,0.8697
454.0,0.9081
455.0,0.9138
456.0,0.9356
457.0,0.9513
458.0,0.9188
459.0,0.9142
460.0,0.9167
461.0,0.9378
462.0,0.9452
463.0,0.9388
464.0,0.9235
465.0,0.912
466.0,0.921
467.0,0.9041
468.0,0.9148
469.0,0.9197
470.0,0.8904
471.0,0.8893
472.0,0.937
473.0,0.9249
474.0,0.9262
475.0,0.934
476.0,0.906
477.0,0.9085
478.0,0.9338
479.0,0.9282
480.0,0.9301
481.0,0.9476
482.0,0.9527
483.0,0.9413
484.0,0.9221
485.0,0.8787
486.0,0.7682
487.0,0.8052
488.0,0.8834
489.0,0.8861
490.0,0.9323
491.0,0.9163
492.0,0.8654
493.0,0.8937
494.0,0.9027
495.0,0.9104
496.0,0.9161
497.0,0.9303
498.0,0.8868
499.0,0.8981
500.0,0.8719
501.0,0.8558
502.0,0.8436
503.0,0.8778
504.0,0.855
505.0,0.8861
506.0,0.9147
507.0,0.8704
508.0,0.8434
509.0,0.8672
510.0,0.8627
511.0,0.886
512.0,0.8957
513.0,0.8478
514.0,0.842
515.0,0.8336
516.0,0.8316
517.0,0.739
518.0,0.7769
519.0,0.8148
520.0,0.8445
521.0,0.8525
522.0,0.8532
523.0,0.8378
524.0,0.8677
525.0,0.8778
526.0,0.8385
527.0,0.79
528.0,0.8355
529.0,0.8806
530.0,0.8679
531.0,0.8807
532.0,0.8505
533.0,0.8255
534.0,0.85
535.0,0.8686
536.0,0.8766
537.0,0.8421
538.0,0.857
539.0,0.8498
540.0,0.8147
541.0,0.82
542.0,0.8456
543.0,0.8368
544.0,0.8512
545.0,0.8486
546.0,0.8522
547.0,0.8519
548.0,0.8418
549.0,0.8444
550.0,0.8545
551.0,0.8441
552.0,0.85
553.0,0.8347
554.0,0.8547
555.0,0.8564
556.0,0.8452
557.0,0.8189
558.0,0.8127
559.0,0.7974
560.0,0.8073
561.0,0.8177
562.0,0.8117
563.0,0.8337
564.0,0.8109
565.0,0.8039
566.0,0.792
567.0,0.8069
568.0,0.7994
569.0,0.7798
570.0,0.7797
571.0,0.7751
572.0,0.7934
573.0,0.8018
574.0,0.7991
575.0,0.7841
576.0,0.7769
577.0,0.7854
578.0,0.7738
579.0,0.7772
580.0,0.7924
581.0,0.7968
582.0,0.8121
583.0,0.8143
584.0,0.8216
585.0,0.8016
586.0,0.7851
587.0,0.8021
588.0,0.7819
589.0,0.6913
590.0,0.7231
591.0,0.766
592.0,0.7558
593.0,0.7677
594.0,0.7621
595.0,0.7428
596.0,0.7732
597.0,0.7645
598.0,0.7629
599.0,0.7637
600.0,0.7652
601.0,0.7591
602.0,0.754
603.0,0.7666
604.0,0.7794
605.0,0.7754
606.0,0.7723
607.0,0.7801
608.0,0.7716
609.0,0.7731
610.0,0.7677
611.0,0.7717
612.0,0.7696
613.0,0.7599
614.0,0.7497
615.0,0.7661
616.0,0.7409
617.0,0.7395
618.0,0.768
619.0,0.7603
620.0,0.7651
621.0,0.7657
622.0,0.7567
623.0,0.7451
624.0,0.7324
625.0,0.7307
626.0,0.7415
627.0,0.7496
628.0,0.6967
629.0,0.7307
630.0,0.7137
631.0,0.731
632.0,0.7224
633.0,0.7448
634.0,0.738
635.0,0.7496
636.0,0.7399
637.0,0.7522
638.0,0.7597
639.0,0.7513
640.0,0.7442
641.0,0.7438
642.0,0.7406
643.0,0.7505
644.0,0.7482
645.0,0.7494
646.0,0.7315
647.0,0.7219
648.0,0.7225
649.0,0.7085
650.0,0.7131
651.0,0.7442
652.0,0.712
653.0,0.7344
654.0,0.7263
655.0,0.6986
656.0,0.6196
657.0,0.6364
658.0,0.7135
659.0,0.7188
660.0,0.7219
661.0,0.727
662.0,0.7282
663.0,0.7139
664.0,0.7227
665.0,0.7235
666.0,0.7242
667.0,0.7236
668.0,0.7241
669.0,0.7354
670.0,0.7322
671.0,0.7321
672.0,0.7259
673.0,0.7369
674.0,0.7342
675.0,0.7276
676.0,0.7326
677.0,0.7254
678.0,0.7275
679.0,0.7158
680.0,0.7215
681.0,0.7168
682.0,0.7159
683.0,0.7145
684.0,0.711
685.0,0.7171
686.0,0.7128
687.0,0.459
688.0,0.5446
689.0,0.5468
690.0,0.5758
691.0,0.6086
692.0,0.6329
693.0,0.6275
694.0,0.6223
695.0,0.6498
696.0,0.6508
697.0,0.6928
698.0,0.682
699.0,0.6643
700.0,0.6562
701.0,0.649
702.0,0.6541
703.0,0.6553
704.0,0.6772
705.0,0.6782
706.0,0.6779
707.0,0.6786
708.0,0.68
709.0,0.6815
710.0,0.6812
711.0,0.6805
712.0,0.6787
713.0,0.6716
714.0,0.6742
715.0,0.6524
716.0,0.6526
717.0,0.5608
718.0,0.5143
719.0,0.4706
720.0,0.4926
721.0,0.5469
722.0,0.6291
723.0,0.5839
724.0,0.524
725.0,0.5149
726.0,0.5393
727.0,0.5483
728.0,0.5134
729.0,0.5345
730.0,0.5654
731.0,0.5405
732.0,0.5801
733.0,0.6159
734.0,0.6311
735.0,0.6177
736.0,0.6169
737.0,0.6193
738.0,0.6302
739.0,0.6177
740.0,0.6342
741.0,0.6282
742.0,0.629
743.0,0.6451
744.0,0.6434
745.0,0.6437
746.0,0.6466
747.0,0.6481
748.0,0.6467
749.0,0.6393
750.0,0.639
751.0,0.6325
752.0,0.6352
753.0,0.6385
754.0,0.6399
755.0,0.6363
756.0,0.636
757.0,0.6369
758.0,0.629
759.0,0.6154
760.0,0.08883
761.0,0.04421
762.0,0.2988
763.0,0.1406
764.0,0.2189
765.0,0.2987
766.0,0.3743
767.0,0.4802
768.0,0.5607
769.0,0.5739
770.0,0.5951
771.0,0.6006
772.0,0.6021
773.0,0.6064
774.0,0.6035
775.0,0.599
776.0,0.6063
777.0,0.5983
778.0,0.5947
779.0,0.5952
780.0,0.5918
781.0,0.5925
782.0,0.5962
783.0,0.5858
784.0,0.5887
785.0,0.5842
786.0,0.5906
787.0,0.5797
788.0,0.5721
789.0,0.5718
790.0,0.5557
791.0,0.5614
792.0,0.5574
793.0,0.5483
794.0,0.5586
795.0,0.5678
796.0,0.5491
797.0,0.5497
798.0,0.567
799.0,0.5631
800.0,0.553
801.0,0.551
802.0,0.5495
803.0,0.5451
804.0,0.546
805.0,0.5447
806.0,0.5606
807.0,0.5537
808.0,0.5542
809.0,0.5434
810.0,0.5386
811.0,0.5386
812.0,0.5223
813.0,0.5109
814.0,0.4467
815.0,0.444
816.0,0.4129
817.0,0.4208
818.0,0.4044
819.0,0.4546
820.0,0.4272
821.0,0.5028
822.0,0.4879
823.0,0.3263
824.0,0.4724
825.0,0.494
826.0,0.4742
827.0,0.5015
828.0,0.4219
829.0,0.4715
830.0,0.465
831.0,0.4667
832.0,0.4518
833.0,0.4823
834.0,0.4641
835.0,0.5123
836.0,0.4888
837.0,0.5138
838.0,0.4971
839.0,0.5063
840.0,0.5176
841.0,0.5099
842.0,0.5115
843.0,0.5118
844.0,0.5043
845.0,0.5218
846.0,0.5196
847.0,0.5101
848.0,0.5067
849.0,0.4923
850.0,0.4717
851.0,0.4991
852.0,0.4957
853.0,0.4774
854.0,0.412
855.0,0.4529
856.0,0.4948
857.0,0.506
858.0,0.5022
859.0,0.5028
860.0,0.5038
861.0,0.501
862.0,0.5089
863.0,0.5209
864.0,0.4949
865.0,0.4906
866.0,0.4411
867.0,0.4603
868.0,0.5009
869.0,0.4906
870.0,0.5046
871.0,0.4977
872.0,0.4959
873.0,0.495
874.0,0.4891
875.0,0.4791
876.0,0.4841
877.0,0.489
878.0,0.4943
879.0,0.4867
880.0,0.4763
881.0,0.469
882.0,0.4791
883.0,0.4807
884.0,0.4785
885.0,0.4821
886.0,0.4589
887.0,0.4642
888.0,0.4708
889.0,0.4766
890.0,0.4721
891.0,0.4715
892.0,0.4572
893.0,0.4421
894.0,0.425
895.0,0.3996
896.0,0.3757
897.0,0.3201
898.0,0.3507
899.0,0.2637
900.0,0.3607
901.0,0.2765
902.0,0.3286
903.0,0.3304
904.0,0.4218
905.0,0.4064
906.0,0.3797
907.0,0.3045
908.0,0.3111
909.0,0.3389
910.0,0.2963
911.0,0.318
912.0,0.3331
913.0,0.3006
914.0,0.2987
915.0,0.3238
916.0,0.2733
917.0,0.3504
918.0,0.28
919.0,0.3578
920.0,0.3634
921.0,0.3782
922.0,0.3356
923.0,0.3655
924.0,0.3436
925.0,0.3362
926.0,0.3397
927.0,0.3827
928.0,0.2736
929.0,0.2478
930.0,0.1916
931.0,0.1819
932.0,0.1277
933.0,0.1021
934.0,0.05248
935.0,0.1059
936.0,0.06386
937.0,0.06449
938.0,0.08019
939.0,0.1762
940.0,0.2144
941.0,0.1586
942.0,0.1856
943.0,0.1195
944.0,0.1283
945.0,0.1642
946.0,0.08016
947.0,0.164
948.0,0.12
949.0,0.2229
950.0,0.05687
951.0,0.2201
952.0,0.1138
953.0,0.1499
954.0,0.1871
955.0,0.152
956.0,0.1497
957.0,0.1136
958.0,0.2166
959.0,0.1683
960.0,0.1886
961.0,0.2147
962.0,0.2028
963.0,0.2364
964.0,0.2157
965.0,0.2357
966.0,0.2351
967.0,0.2339
968.0,0.3229
969.0,0.3363
970.0,0.3077
971.0,0.3563
972.0,0.3401
973.0,0.2919
974.0,0.2765
975.0,0.2886
976.0,0.2718
977.0,0.3138
978.0,0.2962
979.0,0.3116
980.0,0.2922
981.0,0.3544
982.0,0.3374
983.0,0.323
984.0,0.3669
985.0,0.3361
986.0,0.3744
987.0,0.3659
988.0,0.3653
989.0,0.374
990.0,0.3631
991.0,0.375
992.0,0.3773
993.0,0.3677
994.0,0.3773
995.0,0.377
996.0,0.3751
997.0,0.3758
998.0,0.3739
999.0,0.3726
1000.0,0.3697
1001.0,0.3746
1002.0,0.3631
1003.0,0.368
1004.0,0.3586
1005.0,0.3459
1006.0,0.3592
1007.0,0.367
1008.0,0.3647
1009.0,0.3626
1010.0,0.3609
1011.0,0.3651
1012.0,0.3617
1013.0,0.3643
1014.0,0.3617
1015.0,0.3593
1016.0,0.3577
1017.0,0.3585
1018.0,0.3573
1019.0,0.3493
1020.0,0.3554
1021.0,0.355
1022.0,0.352
1023.0,0.3557
1024.0,0.3507
1025.0,0.3557
1026.0,0.354
1027.0,0.3532
1028.0,0.3524
1029.0,0.3482
1030.0,0.3508
1031.0,0.3493
1032.0,0.3484
1033.0,0.3431
1034.0,0.3431
1035.0,0.3442
1036.0,0.3459
1037.0,0.3403
1038.0,0.3418
1039.0,0.3416
1040.0,0.3402
1041.0,0.3415
1042.0,0.3391
1043.0,0.338
1044.0,0.3392
1045.0,0.3346
1046.0,0.3308
1047.0,0.3338
1048.0,0.3356
1049.0,0.3343
1050.0,0.3328
1051.0,0.3322
1052.0,0.3308
1053.0,0.3282
1054.0,0.3288
1055.0,0.3289
1056.0,0.3277
1057.0,0.3266
1058.0,0.3185
1059.0,0.3188
1060.0,0.3183
1061.0,0.3179
1062.0,0.3194
1063.0,0.3162
1064.0,0.32
1065.0,0.3175
1066.0,0.3114
1067.0,0.3153
1068.0,0.3083
1069.0,0.2989
1070.0,0.3089
1071.0,0.3142
1072.0,0.3102
1073.0,0.3058
1074.0,0.3142
1075.0,0.2972
1076.0,0.3138
1077.0,0.3075
1078.0,0.3014
1079.0,0.309
1080.0,0.3028
1081.0,0.2925
1082.0,0.2982
1083.0,0.2994
1084.0,0.2915
1085.0,0.3036
1086.0,0.2752
1087.0,0.2854
1088.0,0.2989
1089.0,0.2886
1090.0,0.2815
1091.0,0.2976
1092.0,0.2971
1093.0,0.2485
1094.0,0.2714
1095.0,0.2593
1096.0,0.2473
1097.0,0.2902
1098.0,0.243
1099.0,0.254
1100.0,0.2347
1101.0,0.2381
1102.0,0.2265
1103.0,0.2236
1104.0,0.224
1105.0,0.2479
1106.0,0.184
1107.0,0.2344
1108.0,0.1953
1109.0,0.1963
1110.0,0.2318
1111.0,0.1527
1112.0,0.1951
1113.0,0.1196
1114.0,0.1341
1115.0,0.1109
1116.0,0.08585
1117.0,0.02873
1118.0,0.0943
1119.0,0.04444
1120.0,0.05574
1121.0,0.07538
1122.0,0.02972
1123.0,0.05048
1124.0,0.04257
1125.0,0.05612
1126.0,0.01758
1127.0,0.06348
1128.0,0.03582
1129.0,0.03829
1130.0,0.02446
1131.0,0.1258
1132.0,0.09763
1133.0,0.05897
1134.0,0.01353
1135.0,0.005165
1136.0,0.04818
1137.0,0.1225
1138.0,0.08576
1139.0,0.1337
1140.0,0.1095
1141.0,0.08155
1142.0,0.09496
1143.0,0.1372
1144.0,0.04521
1145.0,0.05693
1146.0,0.06136
1147.0,0.01958
1148.0,0.1186
1149.0,0.09302
1150.0,0.04896
1151.0,0.08507
1152.0,0.1067
1153.0,0.1056
1154.0,0.05496
1155.0,0.1393
1156.0,0.1243
1157.0,0.1414
1158.0,0.1399
1159.0,0.1522
1160.0,0.1287
1161.0,0.1616
1162.0,0.1621
1163.0,0.224
1164.0,0.1903
1165.0,0.1778
1166.0,0.1779
1167.0,0.1946
1168.0,0.1964
1169.0,0.2016
1170.0,0.2205
1171.0,0.2149
1172.0,0.2196
1173.0,0.2201
1174.0,0.1537
1175.0,0.2157
1176.0,0.2388
1177.0,0.2281
1178.0,0.1688
1179.0,0.2408
1180.0,0.2131
1181.0,0.22
1182.0,0.1491
1183.0,0.217
1184.0,0.2025
1185.0,0.1946
1186.0,0.2334
1187.0,0.2215
1188.0,0.1513
1189.0,0.2062
1190.0,0.2282
1191.0,0.2152
1192.0,0.2315
1193.0,0.2213
1194.0,0.2285
1195.0,0.2151
1196.0,0.2065
1197.0,0.2291
1198.0,0.2089
1199.0,0.1756
1200.0,0.2185
1201.0,0.21
1202.0,0.2093
1203.0,0.2073
1204.0,0.1802
1205.0,0.2148
1206.0,0.2383
1207.0,0.2085
1208.0,0.2058
1209.0,0.2102
1210.0,0.2195
1211.0,0.2082
1212.0,0.2047
1213.0,0.23
1214.0,0.2101
1215.0,0.2059
1216.0,0.2294
1217.0,0.2229
1218.0,0.2275
1219.0,0.2245
1220.0,0.2277
1221.0,0.2302
1222.0,0.224
1223.0,0.2218
1224.0,0.2201
1225.0,0.2287
1226.0,0.2305
1227.0,0.2116
1228.0,0.2319
1229.0,0.2305
1230.0,0.2264
1231.0,0.2335
1232.0,0.2321
1233.0,0.2233
1234.0,0.2335
1235.0,0.2319
1236.0,0.2337
1237.0,0.23
1238.0,0.2329
1239.0,0.2299
1240.0,0.2308
1241.0,0.2295
1242.0,0.2292
1243.0,0.2273
1244.0,0.2289
1245.0,0.2299
1246.0,0.2286
1247.0,0.2276
1248.0,0.2274
1249.0,0.2282
1250.0,0.2267
1251.0,0.2237
1252.0,0.2239
1253.0,0.2218
1254.0,0.2194
1255.0,0.2236
1256.0,0.2168
1257.0,0.2155
1258.0,0.2199
1259.0,0.2111
1260.0,0.2123
1261.0,0.1994
1262.0,0.1928
1263.0,0.1932
1264.0,0.177
1265.0,0.1919
1266.0,0.1839
1267.0,0.1877
1268.0,0.1772
1269.0,0.1045
1270.0,0.1868
1271.0,0.1988
1272.0,0.1996
1273.0,0.1974
1274.0,0.1982
1275.0,0.2012
1276.0,0.2034
1277.0,0.205
1278.0,0.2094
1279.0,0.2074
1280.0,0.2048
1281.0,0.1956
1282.0,0.1888
1283.0,0.2033
1284.0,0.2081
1285.0,0.2095
1286.0,0.2125
1287.0,0.2089
1288.0,0.209
1289.0,0.2017
1290.0,0.2072
1291.0,0.2102
1292.0,0.1963
1293.0,0.2058
1294.0,0.2043
1295.0,0.203
1296.0,0.193
1297.0,0.182
1298.0,0.1971
1299.0,0.2062
1300.0,0.1724
1301.0,0.1781
1302.0,0.1965
1303.0,0.1704
1304.0,0.1434
1305.0,0.1923
1306.0,0.1922
1307.0,0.1472
1308.0,0.171
1309.0,0.1905
1310.0,0.1443
1311.0,0.1635
1312.0,0.1587
1313.0,0.1553
1314.0,0.1383
1315.0,0.136
1316.0,0.1605
1317.0,0.1518
1318.0,0.1659
1319.0,0.1272
1320.0,0.1238
1321.0,0.145
1322.0,0.146
1323.0,0.1078
1324.0,0.1248
1325.0,0.1581
1326.0,0.1344
1327.0,0.1278
1328.0,0.1095
1329.0,0.08039
1330.0,0.1056
1331.0,0.06152
1332.0,0.06427
1333.0,0.08995
1334.0,0.07737
1335.0,0.1074
1336.0,0.08371
1337.0,0.07346
1338.0,0.07947
1339.0,0.07944
1340.0,0.07789
1341.0,0.0746
1342.0,0.0785
1343.0,0.05034
1344.0,0.03035
1345.0,0.04385
1346.0,0.02007
1347.0,0.02011
1348.0,0.001086
1349.0,0.004105
1350.0,0.004422
1351.0,0.0009098
1352.0,0.0002034
1353.0,8.62e-06
1354.0,3.376e-05
1355.0,1.829e-07
1356.0,4.164e-06
1357.0,6.366e-06
1358.0,2.201e-07
1359.0,2.046e-08
1360.0,9.04e-08
1361.0,5.357e-11
1362.0,1.135e-13
1363.0,1.102e-07
1364.0,4.547e-08
1365.0,2.804e-14
1366.0,5.224e-07
1367.0,2.286e-07
1368.0,1.109e-16
1369.0,1.679e-08
1370.0,7.282e-09
1371.0,3.56e-10
1372.0,1.263e-07
1373.0,3.121e-06
1374.0,1.67e-05
1375.0,2.995e-05
1376.0,3.063e-05
1377.0,1.362e-05
1378.0,0.0001409
1379.0,5.714e-06
1380.0,7.52e-06
1381.0,1.821e-07
1382.0,1.097e-07
1383.0,1.482e-09
1384.0,1.799e-08
1385.0,1.205e-07
1386.0,8.918e-08
1387.0,1.579e-05
1388.0,3.164e-07
1389.0,6.303e-05
1390.0,5.392e-05
1391.0,3.507e-05
1392.0,2.195e-06
1393.0,1.255e-05
1394.0,5.128e-06
1395.0,3.247e-08
1396.0,8.426e-11
1397.0,4.73e-06
1398.0,0.0001555
1399.0,9.926e-05
1400.0,3.068e-11
1401.0,1.612e-10
1402.0,0.0003392
1403.0,0.0004098
1404.0,0.0001227
1405.0,1.416e-08
1406.0,0.0002982
1407.0,2.795e-05
1408.0,0.0002471
1409.0,7.386e-05
1410.0,6.432e-05
1411.0,0.0003633
1412.0,0.0005184
1413.0,0.006284
1414.0,5.156e-05
1415.0,2.347e-05
1416.0,0.01154
1417.0,0.003108
1418.0,0.00345
1419.0,0.0005204
1420.0,0.002099
1421.0,0.002292
1422.0,0.01514
1423.0,0.002839
1424.0,0.005434
1425.0,0.007792
1426.0,0.009326
1427.0,0.01823
1428.0,0.001002
1429.0,0.01308
1430.0,0.02374
1431.0,0.02645
1432.0,0.0007821
1433.0,0.01632
1434.0,0.008055
1435.0,0.007221
1436.0,0.01521
1437.0,0.01169
1438.0,0.004588
