interpolation:linear
wavelength,value
280.0,4.1749999999999995e-22
280.5,7.662e-21
281.0,3.415e-20
281.5,7.003e-19
282.0,4.412e-18
282.5,1.451e-17
283.0,5.463e-17
283.5,9.453e-17
284.0,1.784e-15
284.5,5.351e-15
285.0,1.558e-14
285.5,1.058e-13
286.0,4.661e-13
286.5,2.407e-12
287.0,7.458e-12
287.5,3.097e-11
288.0,1.08e-10
288.5,4.087e-10
289.0,1.306e-09
289.5,4.64e-09
290.0,1.448e-08
290.5,3.239e-08
291.0,7.703e-08
291.5,2.502e-07
292.0,5.745e-07
292.5,8.437e-07
293.0,1.911e-06
293.5,5e-06
294.0,8.262e-06
294.5,1.617e-05
295.0,2.899e-05
295.5,6.162e-05
296.0,0.0001101
296.5,0.0001428
297.0,0.0001817
297.5,0.0004444
298.0,0.0006477
298.5,0.0006135
299.0,0.001275
299.5,0.001909
300.0,0.001984
300.5,0.002709
301.0,0.004459
301.5,0.006522
302.0,0.005342
302.5,0.009793
303.0,0.01621
303.5,0.0194
304.0,0.01763
304.5,0.02413
305.0,0.03249
305.5,0.03458
306.0,0.03253
306.5,0.03867
307.0,0.05189
307.5,0.06279
308.0,0.06531
308.5,0.07368
309.0,0.06977
309.5,0.07481
310.0,0.0729
310.5,0.1163
311.0,0.1423
311.5,0.1358
312.0,0.1285
312.5,0.1508
313.0,0.1604
313.5,0.1584
314.0,0.1896
314.5,0.1586
315.0,0.2062
315.5,0.1773
316.0,0.1477
316.5,0.2036
317.0,0.2529
317.5,0.2661
318.0,0.2019
318.5,0.2377
319.0,0.2747
319.5,0.2335
320.0,0.2839
320.5,0.3366
321.0,0.2857
321.5,0.2725
322.0,0.3056
322.5,0.265
323.0,0.2552
323.5,0.3035
324.0,0.3522
324.5,0.3624
325.0,0.3188
325.5,0.399
326.0,0.4832
326.5,0.4751
327.0,0.4765
327.5,0.4639
328.0,0.423
328.5,0.4317
329.0,0.5051
329.5,0.5693
330.0,0.5772
330.5,0.47
331.0,0.4815
331.5,0.4829
332.0,0.5118
332.5,0.5019
333.0,0.5027
333.5,0.4612
334.0,0.4734
334.5,0.5375
335.0,0.5005
335.5,0.5842
336.0,0.4041
336.5,0.4752
337.0,0.3923
337.5,0.4889
338.0,0.4712
338.5,0.5435
339.0,0.5376
339.5,0.5169
340.0,0.6076
340.5,0.5468
341.0,0.5334
341.5,0.4894
342.0,0.5847
342.5,0.5467
343.0,0.6013
343.5,0.5662
344.0,0.418
344.5,0.4223
345.0,0.5585
345.5,0.5698
346.0,0.484
346.5,0.5478
347.0,0.588
347.5,0.4753
348.0,0.5416
348.5,0.5411
349.0,0.5017
349.5,0.4966
350.0,0.6139
350.5,0.6474
351.0,0.5783
351.5,0.5621
352.0,0.6034
352.5,0.4706
353.0,0.5925
353.5,0.6333
354.0,0.6573
354.5,0.6665
355.0,0.6642
355.5,0.5997
356.0,0.6273
356.5,0.5355
357.0,0.4425
357.5,0.5416
358.0,0.4291
358.5,0.3666
359.0,0.5128
359.5,0.6535
360.0,0.6926
360.5,0.5535
361.0,0.5044
361.5,0.5804
362.0,0.5016
362.5,0.6938
363.0,0.6229
363.5,0.5735
364.0,0.7011
364.5,0.5992
365.0,0.6101
365.5,0.7655
366.0,0.8108
366.5,0.7615
367.0,0.7415
367.5,0.7693
368.0,0.6731
368.5,0.679
369.0,0.7331
369.5,0.7812
370.0,0.8326
370.5,0.646
371.0,0.6901
371.5,0.8633
372.0,0.5729
372.5,0.6868
373.0,0.6984
373.5,0.4543
374.0,0.66
374.5,0.5465
375.0,0.5311
375.5,0.7929
376.0,0.6572
376.5,0.681
377.0,0.7209
377.5,0.8432
378.0,0.914
378.5,0.8638
379.0,0.7129
379.5,0.6512
380.0,0.677
380.5,0.8197
381.0,0.8212
381.5,0.6508
382.0,0.5777
382.5,0.4923
383.0,0.4557
383.5,0.4388
384.0,0.484
384.5,0.7117
385.0,0.7057
385.5,0.657
386.0,0.5626
386.5,0.7389
387.0,0.6139
387.5,0.6895
388.0,0.6365
388.5,0.629
389.0,0.6789
389.5,0.8222
390.0,0.825
390.5,0.7591
391.0,0.8934
391.5,0.9112
392.0,0.7674
392.5,0.6869
393.0,0.3821
393.5,0.2777
394.0,0.565
394.5,0.7182
395.0,0.8763
395.5,0.8902
396.0,0.7717
396.5,0.451
397.0,0.3384
397.5,0.6881
398.0,0.9636
398.5,0.9959
399.0,1.078
399.5,1.074
400.0,1.116
401.0,1.135
402.0,1.197
403.0,1.136
404.0,1.119
405.0,1.118
406.0,1.1
407.0,1.081
408.0,1.124
409.0,1.202
410.0,1.05
411.0,1.137
412.0,1.22
413.0,1.19
414.0,1.204
415.0,1.207
416.0,1.227
417.0,1.197
418.0,1.175
419.0,1.19
420.0,1.184
421.0,1.238
422.0,1.177
423.0,1.149
424.0,1.215
425.0,1.213
426.0,1.181
427.0,1.158
428.0,1.128
429.0,1.068
430.0,0.9342
431.0,0.9261
432.0,1.195
433.0,1.201
434.0,1.115
435.0,1.165
436.0,1.312
437.0,1.293
438.0,1.177
439.0,1.218
440.0,1.257
441.0,1.301
442.0,1.395
443.0,1.36
444.0,1.388
445.0,1.359
446.0,1.295
447.0,1.4
448.0,1.422
449.0,1.426
450.0,1.466
451.0,1.52
452.0,1.464
453.0,1.376
454.0,1.436
455.0,1.445
456.0,1.479
457.0,1.503
458.0,1.453
459.0,1.445
460.0,1.449
461.0,1.482
462.0,1.493
463.0,1.482
464.0,1.457
465.0,1.437
466.0,1.451
467.0,1.425
468.0,1.441
469.0,1.449
470.0,1.403
471.0,1.4
472.0,1.476
473.0,1.457
474.0,1.459
475.0,1.473
476.0,1.43
477.0,1.435
478.0,1.474
479.0,1.464
480.0,1.466
481.0,1.493
482.0,1.499
483.0,1.48
484.0,1.449
485.0,1.38
486.0,1.206
487.0,1.263
488.0,1.386
489.0,1.39
490.0,1.462
491.0,1.436
492.0,1.356
493.0,1.401
494.0,1.415
495.0,1.426
496.0,1.435
497.0,1.457
498.0,1.389
499.0,1.407
500.0,1.367
501.0,1.342
502.0,1.325
503.0,1.38
504.0,1.349
505.0,1.394
506.0,1.439
507.0,1.369
508.0,1.325
509.0,1.361
510.0,1.353
511.0,1.389
512.0,1.404
513.0,1.328
514.0,1.319
515.0,1.306
516.0,1.303
517.0,1.157
518.0,1.217
519.0,1.276
520.0,1.323
521.0,1.335
522.0,1.337
523.0,1.313
524.0,1.361
525.0,1.378
526.0,1.316
527.0,1.241
528.0,1.313
529.0,1.385
530.0,1.365
531.0,1.386
532.0,1.338
533.0,1.299
534.0,1.337
535.0,1.366
536.0,1.378
537.0,1.323
538.0,1.346
539.0,1.335
540.0,1.28
541.0,1.29
542.0,1.331
543.0,1.316
544.0,1.339
545.0,1.335
546.0,1.342
547.0,1.34
548.0,1.324
549.0,1.328
550.0,1.343
551.0,1.327
552.0,1.336
553.0,1.312
554.0,1.344
555.0,1.347
556.0,1.329
557.0,1.288
558.0,1.279
559.0,1.256
560.0,1.272
561.0,1.289
562.0,1.28
563.0,1.316
564.0,1.281
565.0,1.271
566.0,1.252
567.0,1.277
568.0,1.267
569.0,1.241
570.0,1.24
571.0,1.232
572.0,1.264
573.0,1.278
574.0,1.274
575.0,1.251
576.0,1.24
577.0,1.253
578.0,1.233
579.0,1.236
580.0,1.257
581.0,1.262
582.0,1.284
583.0,1.285
584.0,1.295
585.0,1.263
586.0,1.237
587.0,1.266
588.0,1.24
589.0,1.108
590.0,1.158
591.0,1.219
592.0,1.207
593.0,1.221
594.0,1.214
595.0,1.187
596.0,1.227
597.0,1.215
598.0,1.21
599.0,1.21
600.0,1.21
601.0,1.198
602.0,1.19
603.0,1.209
604.0,1.229
605.0,1.222
606.0,1.216
607.0,1.227
608.0,1.213
609.0,1.214
610.0,1.205
611.0,1.211
612.0,1.207
613.0,1.191
614.0,1.174
615.0,1.199
616.0,1.159
617.0,1.157
618.0,1.201
619.0,1.188
620.0,1.196
621.0,1.198
622.0,1.184
623.0,1.167
624.0,1.146
625.0,1.144
626.0,1.161
627.0,1.175
628.0,1.118
629.0,1.154
630.0,1.129
631.0,1.147
632.0,1.132
633.0,1.164
634.0,1.151
635.0,1.167
636.0,1.151
637.0,1.169
638.0,1.178
639.0,1.164
640.0,1.152
641.0,1.151
642.0,1.145
643.0,1.16
644.0,1.156
645.0,1.158
646.0,1.133
647.0,1.125
648.0,1.127
649.0,1.106
650.0,1.104
651.0,1.15
652.0,1.11
653.0,1.135
654.0,1.122
655.0,1.084
656.0,0.9577
657.0,0.9832
658.0,1.1
659.0,1.107
660.0,1.111
661.0,1.118
662.0,1.122
663.0,1.099
664.0,1.11
665.0,1.11
666.0,1.11
667.0,1.108
668.0,1.108
669.0,1.125
670.0,1.12
671.0,1.119
672.0,1.109
673.0,1.126
674.0,1.121
675.0,1.111
676.0,1.118
677.0,1.107
678.0,1.109
679.0,1.091
680.0,1.1
681.0,1.093
682.0,1.091
683.0,1.089
684.0,1.084
685.0,1.093
686.0,1.086
687.0,0.8091
688.0,0.9053
689.0,0.9071
690.0,0.9374
691.0,0.9709
692.0,0.9939
693.0,0.9872
694.0,0.9794
695.0,1.009
696.0,1.011
697.0,1.059
698.0,1.043
699.0,1.027
700.0,1.015
701.0,1.007
702.0,1.011
703.0,1.012
704.0,1.04
705.0,1.041
706.0,1.038
707.0,1.038
708.0,1.041
709.0,1.039
710.0,1.04
711.0,1.038
712.0,1.033
713.0,1.024
714.0,1.028
715.0,0.9987
716.0,1.0
717.0,0.8998
718.0,0.8327
719.0,0.7666
720.0,0.805
721.0,0.8681
722.0,0.9709
723.0,0.9156
724.0,0.8381
725.0,0.8293
726.0,0.8652
727.0,0.8703
728.0,0.8285
729.0,0.8477
730.0,0.8962
731.0,0.8615
732.0,0.9092
733.0,0.9504
734.0,0.9698
735.0,0.9514
736.0,0.9499
737.0,0.9541
738.0,0.9612
739.0,0.9425
740.0,0.9646
741.0,0.9536
742.0,0.9531
743.0,0.977
744.0,0.9733
745.0,0.9729
746.0,0.9773
747.0,0.9793
748.0,0.9772
749.0,0.966
750.0,0.9653
751.0,0.9555
752.0,0.9595
753.0,0.9643
754.0,0.9665
755.0,0.961
756.0,0.9605
757.0,0.9619
758.0,0.9501
759.0,0.9352
760.0,0.2533
761.0,0.1581
762.0,0.5702
763.0,0.345
764.0,0.4642
765.0,0.5706
766.0,0.6556
767.0,0.7841
768.0,0.8717
769.0,0.8827
770.0,0.9046
771.0,0.9083
772.0,0.9091
773.0,0.9152
774.0,0.9105
775.0,0.9034
776.0,0.9143
777.0,0.9022
778.0,0.8968
779.0,0.8975
780.0,0.8924
781.0,0.8933
782.0,0.8988
783.0,0.883
784.0,0.8872
785.0,0.8809
786.0,0.8909
787.0,0.8787
788.0,0.8693
789.0,0.8695
790.0,0.8514
791.0,0.8539
792.0,0.847
793.0,0.8339
794.0,0.8429
795.0,0.8584
796.0,0.8388
797.0,0.8401
798.0,0.8581
799.0,0.8539
800.0,0.8408
801.0,0.8396
802.0,0.837
803.0,0.8315
804.0,0.8319
805.0,0.8274
806.0,0.8474
807.0,0.8379
808.0,0.8383
809.0,0.825
810.0,0.82
811.0,0.8242
812.0,0.8054
813.0,0.7918
814.0,0.7131
815.0,0.7083
816.0,0.6618
817.0,0.6717
818.0,0.6503
819.0,0.7124
820.0,0.6767
821.0,0.7713
822.0,0.7525
823.0,0.5439
824.0,0.7373
825.0,0.759
826.0,0.7361
827.0,0.7704
828.0,0.671
829.0,0.7304
830.0,0.7227
831.0,0.7246
832.0,0.7056
833.0,0.7413
834.0,0.721
835.0,0.7795
836.0,0.7539
837.0,0.7812
838.0,0.7602
839.0,0.7687
840.0,0.7846
841.0,0.775
842.0,0.7744
843.0,0.7716
844.0,0.7622
845.0,0.7861
846.0,0.7823
847.0,0.7671
848.0,0.7633
849.0,0.7417
850.0,0.7104
851.0,0.7533
852.0,0.7475
853.0,0.7186
854.0,0.6212
855.0,0.6815
856.0,0.7452
857.0,0.7611
858.0,0.7558
859.0,0.756
860.0,0.757
861.0,0.753
862.0,0.7647
863.0,0.7827
864.0,0.7436
865.0,0.737
866.0,0.6626
867.0,0.6915
868.0,0.7524
869.0,0.7368
870.0,0.7578
871.0,0.7475
872.0,0.7448
873.0,0.7433
874.0,0.7344
875.0,0.7196
876.0,0.7271
877.0,0.7344
878.0,0.7425
879.0,0.7311
880.0,0.7154
881.0,0.7051
882.0,0.7206
883.0,0.7224
884.0,0.7192
885.0,0.7247
886.0,0.6924
887.0,0.6984
888.0,0.7096
889.0,0.7161
890.0,0.7119
891.0,0.7098
892.0,0.6916
893.0,0.673
894.0,0.6549
895.0,0.626
896.0,0.5933
897.0,0.5198
898.0,0.5612
899.0,0.4396
900.0,0.5686
901.0,0.4601
902.0,0.5233
903.0,0.5337
904.0,0.65
905.0,0.6309
906.0,0.5931
907.0,0.4968
908.0,0.5047
909.0,0.5394
910.0,0.4899
911.0,0.5145
912.0,0.5347
913.0,0.4978
914.0,0.4913
915.0,0.531
916.0,0.4539
917.0,0.5612
918.0,0.4656
919.0,0.5682
920.0,0.5677
921.0,0.5887
922.0,0.5355
923.0,0.5682
924.0,0.5493
925.0,0.5377
926.0,0.5434
927.0,0.5995
928.0,0.4652
929.0,0.4316
930.0,0.3505
931.0,0.33
932.0,0.2491
933.0,0.209
934.0,0.1284
935.0,0.2084
936.0,0.1387
937.0,0.1419
938.0,0.171
939.0,0.3198
940.0,0.3769
941.0,0.2953
942.0,0.3347
943.0,0.2288
944.0,0.2334
945.0,0.3026
946.0,0.1657
947.0,0.3069
948.0,0.2275
949.0,0.399
950.0,0.1297
951.0,0.3909
952.0,0.2257
953.0,0.2812
954.0,0.3335
955.0,0.2831
956.0,0.2701
957.0,0.2276
958.0,0.3663
959.0,0.3029
960.0,0.3391
961.0,0.3715
962.0,0.3528
963.0,0.3988
964.0,0.3681
965.0,0.3963
966.0,0.3984
967.0,0.3974
968.0,0.5061
969.0,0.5303
970.0,0.491
971.0,0.5504
972.0,0.5287
973.0,0.4719
974.0,0.4498
975.0,0.4622
976.0,0.4449
977.0,0.4944
978.0,0.4747
979.0,0.4933
980.0,0.4664
981.0,0.5467
982.0,0.5268
983.0,0.5083
984.0,0.5587
985.0,0.5247
986.0,0.5658
987.0,0.5576
988.0,0.5566
989.0,0.5624
990.0,0.553
991.0,0.5644
992.0,0.5673
993.0,0.5576
994.0,0.5669
995.0,0.5658
996.0,0.5637
997.0,0.5643
998.0,0.5618
999.0,0.5596
1000.0,0.5564
1001.0,0.5625
1002.0,0.5499
1003.0,0.5528
1004.0,0.54
1005.0,0.5192
1006.0,0.54
1007.0,0.5512
1008.0,0.5487
1009.0,0.5463
1010.0,0.5443
1011.0,0.5483
1012.0,0.5441
1013.0,0.5468
1014.0,0.543
1015.0,0.5395
1016.0,0.5371
1017.0,0.5386
1018.0,0.5362
1019.0,0.5258
1020.0,0.5335
1021.0,0.5326
1022.0,0.5289
1023.0,0.5346
1024.0,0.5287
1025.0,0.5338
1026.0,0.5318
1027.0,0.5305
1028.0,0.5295
1029.0,0.5234
1030.0,0.5265
1031.0,0.5246
1032.0,0.523
1033.0,0.5151
1034.0,0.5151
1035.0,0.5167
1036.0,0.5195
1037.0,0.511
1038.0,0.5133
1039.0,0.5131
1040.0,0.511
1041.0,0.5131
1042.0,0.5096
1043.0,0.508
1044.0,0.5099
1045.0,0.503
1046.0,0.4975
1047.0,0.5021
1048.0,0.5049
1049.0,0.5032
1050.0,0.5009
1051.0,0.5003
1052.0,0.4984
1053.0,0.4946
1054.0,0.4958
1055.0,0.4962
1056.0,0.4947
1057.0,0.4933
1058.0,0.4813
1059.0,0.482
1060.0,0.4813
1061.0,0.4808
1062.0,0.4835
1063.0,0.4789
1064.0,0.4845
1065.0,0.4814
1066.0,0.4716
1067.0,0.4778
1068.0,0.4676
1069.0,0.453
1070.0,0.4687
1071.0,0.475
1072.0,0.4702
1073.0,0.4633
1074.0,0.4742
1075.0,0.4534
1076.0,0.474
1077.0,0.4672
1078.0,0.459
1079.0,0.4659
1080.0,0.46
1081.0,0.4467
1082.0,0.4513
1083.0,0.4521
1084.0,0.4464
1085.0,0.4608
1086.0,0.4253
1087.0,0.4354
1088.0,0.4522
1089.0,0.4411
1090.0,0.4335
1091.0,0.4515
1092.0,0.4497
1093.0,0.3901
1094.0,0.4125
1095.0,0.4051
1096.0,0.3905
1097.0,0.4391
1098.0,0.3853
1099.0,0.4005
1100.0,0.3765
1101.0,0.3799
1102.0,0.3652
1103.0,0.3635
1104.0,0.3637
1105.0,0.3922
1106.0,0.3154
1107.0,0.3755
1108.0,0.3277
1109.0,0.3264
1110.0,0.3733
1111.0,0.266
1112.0,0.3232
1113.0,0.2192
1114.0,0.2432
1115.0,0.2021
1116.0,0.1698
1117.0,0.07227
1118.0,0.1814
1119.0,0.09768
1120.0,0.123
1121.0,0.1584
1122.0,0.07338
1123.0,0.111
1124.0,0.09374
1125.0,0.1205
1126.0,0.04874
1127.0,0.1353
1128.0,0.08819
1129.0,0.09237
1130.0,0.06424
1131.0,0.2397
1132.0,0.1912
1133.0,0.1301
1134.0,0.03916
1135.0,0.01442
1136.0,0.1117
1137.0,0.2379
1138.0,0.1698
1139.0,0.2368
1140.0,0.2041
1141.0,0.1613
1142.0,0.182
1143.0,0.2517
1144.0,0.09652
1145.0,0.1252
1146.0,0.1351
1147.0,0.05476
1148.0,0.218
1149.0,0.1792
1150.0,0.1035
1151.0,0.1686
1152.0,0.2015
1153.0,0.1919
1154.0,0.123
1155.0,0.2473
1156.0,0.2258
1157.0,0.2489
1158.0,0.2459
1159.0,0.261
1160.0,0.2283
1161.0,0.2718
1162.0,0.2738
1163.0,0.3541
1164.0,0.3096
1165.0,0.2974
1166.0,0.2917
1167.0,0.3147
1168.0,0.3193
1169.0,0.3248
1170.0,0.3485
1171.0,0.3405
1172.0,0.3441
1173.0,0.3477
1174.0,0.2611
1175.0,0.3378
1176.0,0.3653
1177.0,0.3545
1178.0,0.2761
1179.0,0.368
1180.0,0.3352
1181.0,0.3452
1182.0,0.2488
1183.0,0.3384
1184.0,0.3206
1185.0,0.3124
1186.0,0.3602
1187.0,0.3462
1188.0,0.2539
1189.0,0.3233
1190.0,0.352
1191.0,0.3395
1192.0,0.3563
1193.0,0.3434
1194.0,0.3526
1195.0,0.3372
1196.0,0.3271
1197.0,0.3507
1198.0,0.3238
1199.0,0.284
1200.0,0.3394
1201.0,0.3302
1202.0,0.3266
1203.0,0.324
1204.0,0.2882
1205.0,0.3317
1206.0,0.3615
1207.0,0.3266
1208.0,0.3189
1209.0,0.3248
1210.0,0.3364
1211.0,0.3237
1212.0,0.3234
1213.0,0.3514
1214.0,0.3293
1215.0,0.324
1216.0,0.3502
1217.0,0.3426
1218.0,0.3475
1219.0,0.344
1220.0,0.3476
1221.0,0.3502
1222.0,0.3421
1223.0,0.3396
1224.0,0.3386
1225.0,0.348
1226.0,0.3493
1227.0,0.3265
1228.0,0.3502
1229.0,0.3493
1230.0,0.3441
1231.0,0.3513
1232.0,0.3493
1233.0,0.3406
1234.0,0.3503
1235.0,0.3485
1236.0,0.3507
1237.0,0.3471
1238.0,0.3495
1239.0,0.345
1240.0,0.3462
1241.0,0.3454
1242.0,0.3439
1243.0,0.341
1244.0,0.3437
1245.0,0.345
1246.0,0.343
1247.0,0.3419
1248.0,0.3421
1249.0,0.3428
1250.0,0.3409
1251.0,0.3371
1252.0,0.3365
1253.0,0.3349
1254.0,0.3325
1255.0,0.3364
1256.0,0.3291
1257.0,0.3278
1258.0,0.3322
1259.0,0.3235
1260.0,0.3247
1261.0,0.3107
1262.0,0.3036
1263.0,0.3043
1264.0,0.2862
1265.0,0.3023
1266.0,0.294
1267.0,0.297
1268.0,0.2851
1269.0,0.2008
1270.0,0.2967
1271.0,0.3092
1272.0,0.3097
1273.0,0.3069
1274.0,0.3072
1275.0,0.3109
1276.0,0.3131
1277.0,0.3142
1278.0,0.3185
1279.0,0.3158
1280.0,0.3117
1281.0,0.2966
1282.0,0.2845
1283.0,0.3067
1284.0,0.3143
1285.0,0.3162
1286.0,0.3197
1287.0,0.3161
1288.0,0.3157
1289.0,0.3083
1290.0,0.3127
1291.0,0.3166
1292.0,0.3024
1293.0,0.3117
1294.0,0.3098
1295.0,0.3094
1296.0,0.2987
1297.0,0.2851
1298.0,0.3018
1299.0,0.3116
1300.0,0.2727
1301.0,0.2792
1302.0,0.3006
1303.0,0.2681
1304.0,0.2371
1305.0,0.2951
1306.0,0.2956
1307.0,0.2393
1308.0,0.2672
1309.0,0.294
1310.0,0.2351
1311.0,0.2581
1312.0,0.2524
1313.0,0.2489
1314.0,0.2258
1315.0,0.2248
1316.0,0.2554
1317.0,0.2429
1318.0,0.2605
1319.0,0.2137
1320.0,0.2049
1321.0,0.2351
1322.0,0.2389
1323.0,0.1883
1324.0,0.2096
1325.0,0.2521
1326.0,0.2218
1327.0,0.2129
1328.0,0.1863
1329.0,0.1471
1330.0,0.1878
1331.0,0.1224
1332.0,0.1232
1333.0,0.169
1334.0,0.1396
1335.0,0.1874
1336.0,0.1526
1337.0,0.1378
1338.0,0.1487
1339.0,0.1469
1340.0,0.1406
1341.0,0.1424
1342.0,0.1492
1343.0,0.1124
1344.0,0.0671
1345.0,0.09526
1346.0,0.05534
1347.0,0.0576
1348.0,0.005599
1349.0,0.01778
1350.0,0.01694
1351.0,0.005881
1352.0,0.002266
1353.0,0.0001801
1354.0,0.0004755
1355.0,9.078e-06
1356.0,9.155e-05
1357.0,0.0001371
1358.0,1.039e-05
1359.0,2.434e-06
1360.0,5.934e-06
1361.0,2.587e-08
1362.0,1.334e-10
1363.0,9.185e-06
1364.0,4.139e-06
1365.0,9.415e-11
1366.0,3.382e-05
1367.0,1.304e-05
1368.0,2.992e-12
1369.0,1.627e-06
1370.0,1.039e-06
1371.0,8.427e-08
1372.0,7.247e-06
1373.0,9.324e-05
1374.0,0.000322
1375.0,0.0005746
1376.0,0.0004221
1377.0,0.0002083
1378.0,0.001722
1379.0,8.956e-05
1380.0,0.0001517
1381.0,4.942e-06
1382.0,7.018e-06
1383.0,1.411e-07
1384.0,2.025e-06
1385.0,5.027e-06
1386.0,7.427e-06
1387.0,0.0003854
1388.0,8.362e-06
1389.0,0.000966
1390.0,0.0008248
1391.0,0.0005969
1392.0,4.469e-05
1393.0,0.0001991
1394.0,0.0001603
1395.0,1.766e-06
1396.0,3.13e-08
1397.0,8.984e-05
1398.0,0.001973
1399.0,0.001257
1400.0,1.899e-08
1401.0,4.947e-08
1402.0,0.002407
1403.0,0.003226
1404.0,0.001016
1405.0,1.078e-06
1406.0,0.002935
1407.0,0.0002515
1408.0,0.002365
1409.0,0.000985
1410.0,0.0007096
1411.0,0.002806
1412.0,0.003418
1413.0,0.02516
1414.0,0.0005478
1415.0,0.0002935
1416.0,0.03505
1417.0,0.01298
1418.0,0.01482
1419.0,0.002434
1420.0,0.009183
1421.0,0.01016
1422.0,0.04497
1423.0,0.009408
1424.0,0.01706
1425.0,0.02578
1426.0,0.02727
1427.0,0.04543
1428.0,0.005407
1429.0,0.03598
1430.0,0.05642
1431.0,0.06075
1432.0,0.004333
1433.0,0.04043
1434.0,0.02148
1435.0,0.02455
1436.0,0.04238
1437.0,0.03256
1438.0,0.01517
1439.0,0.05541
1440.0,0.04185
1441.0,0.03419
1442.0,0.03732
1443.0,0.04338
1444.0,0.05873
1445.0,0.04867
1446.0,0.02275
1447.0,0.03585
1448.0,0.1011
1449.0,0.09057
1450.0,0.02652
1451.0,0.01141
1452.0,0.05711
1453.0,0.07332
1454.0,0.1165
1455.0,0.05845
1456.0,0.08
1457.0,0.1017
1458.0,0.1146
1459.0,0.1363
1460.0,0.07389
1461.0,0.07941
1462.0,0.1119
