interpolation:linear
wavelength,value
280.0,2.4749999999999996e-22
280.5,8.154e-21
281.0,4.374e-20
281.5,3.944e-19
282.0,6.403e-19
282.5,1.588e-18
283.0,5.025e-18
283.5,8.183e-18
284.0,1.35e-16
284.5,3.94e-16
285.0,6.46e-16
285.5,3.228e-15
286.0,1.303e-14
286.5,5.872e-14
287.0,1.687e-13
287.5,6.509e-13
288.0,2.271e-12
288.5,6.815e-12
289.0,1.806e-11
289.5,5.435e-11
290.0,1.506e-10
290.5,3.069e-10
291.0,6.584e-10
291.5,1.89e-09
292.0,3.797e-09
292.5,5.336e-09
293.0,1.147e-08
293.5,2.797e-08
294.0,4.381e-08
294.5,6.003e-08
295.0,1.019e-07
295.5,1.699e-07
296.0,3.303e-07
296.5,4.657e-07
297.0,6.347e-07
297.5,1.724e-06
298.0,2.752e-06
298.5,2.797e-06
299.0,6.237e-06
299.5,1.059e-05
300.0,1.181e-05
300.5,1.736e-05
301.0,3.225e-05
301.5,5.268e-05
302.0,4.562e-05
302.5,9.196e-05
303.0,0.0001729
303.5,0.0002258
304.0,0.00022
304.5,0.0003621
305.0,0.0006326
305.5,0.0007943
306.0,0.000797
306.5,0.001055
307.0,0.001793
307.5,0.002728
308.0,0.002945
308.5,0.003722
309.0,0.00375
309.5,0.00478
310.0,0.005044
310.5,0.008372
311.0,0.01094
311.5,0.01074
312.0,0.01171
312.5,0.01507
313.0,0.01684
313.5,0.01591
314.0,0.02129
314.5,0.02063
315.0,0.02755
315.5,0.02207
316.0,0.02072
316.5,0.03165
317.0,0.03925
317.5,0.04014
318.0,0.03266
318.5,0.04395
319.0,0.0543
319.5,0.04149
320.0,0.04964
320.5,0.06742
321.0,0.0646
321.5,0.0624
322.0,0.06149
322.5,0.05372
323.0,0.05632
323.5,0.07267
324.0,0.08554
324.5,0.08506
325.0,0.07153
325.5,0.09589
326.0,0.1188
326.5,0.1222
327.0,0.1207
327.5,0.1151
328.0,0.09892
328.5,0.1086
329.0,0.1346
329.5,0.1544
330.0,0.1545
330.5,0.1205
331.0,0.1217
331.5,0.1262
332.0,0.1403
332.5,0.1406
333.0,0.1392
333.5,0.1234
334.0,0.126
334.5,0.149
335.0,0.142
335.5,0.1665
336.0,0.1153
336.5,0.1337
337.0,0.1086
337.5,0.1346
338.0,0.1341
338.5,0.1557
339.0,0.1544
339.5,0.1485
340.0,0.1737
340.5,0.157
341.0,0.1537
341.5,0.1415
342.0,0.1693
342.5,0.1586
343.0,0.1742
343.5,0.164
344.0,0.1208
344.5,0.1223
345.0,0.1624
345.5,0.1661
346.0,0.1414
346.5,0.1603
347.0,0.1719
347.5,0.139
348.0,0.1588
348.5,0.159
349.0,0.1476
349.5,0.1463
350.0,0.1811
350.5,0.1911
351.0,0.1706
351.5,0.1656
352.0,0.1782
352.5,0.1393
353.0,0.1757
353.5,0.1881
354.0,0.1954
354.5,0.1982
355.0,0.1976
355.5,0.1787
356.0,0.1872
356.5,0.1599
357.0,0.1321
357.5,0.1619
358.0,0.1284
358.5,0.1097
359.0,0.1535
359.5,0.1956
360.0,0.2075
360.5,0.166
361.0,0.1515
361.5,0.1747
362.0,0.1512
362.5,0.2095
363.0,0.1884
363.5,0.1737
364.0,0.2126
364.5,0.1819
365.0,0.1853
365.5,0.2328
366.0,0.2469
366.5,0.2322
367.0,0.2263
367.5,0.235
368.0,0.2058
368.5,0.2078
369.0,0.2246
369.5,0.2395
370.0,0.2556
370.5,0.1985
371.0,0.2123
371.5,0.2657
372.0,0.1765
372.5,0.2118
373.0,0.2156
373.5,0.1404
374.0,0.2041
374.5,0.1692
375.0,0.1646
375.5,0.2458
376.0,0.2039
376.5,0.2114
377.0,0.224
377.5,0.2623
378.0,0.2845
378.5,0.269
379.0,0.2221
379.5,0.2029
380.0,0.2111
380.5,0.2559
381.0,0.2567
381.5,0.2037
382.0,0.1811
382.5,0.1546
383.0,0.1432
383.5,0.1381
384.0,0.1524
384.5,0.2244
385.0,0.2227
385.5,0.2075
386.0,0.1779
386.5,0.2339
387.0,0.1945
387.5,0.2186
388.0,0.2019
388.5,0.1998
389.0,0.2158
389.5,0.2616
390.0,0.2627
390.5,0.242
391.0,0.285
391.5,0.2909
392.0,0.2452
392.5,0.2197
393.0,0.1223
393.5,0.08901
394.0,0.1812
394.5,0.2306
395.0,0.2816
395.5,0.2862
396.0,0.2483
396.5,0.1453
397.0,0.1091
397.5,0.2221
398.0,0.3111
398.5,0.3218
399.0,0.3488
399.5,0.3479
400.0,0.3614
401.0,0.3644
402.0,0.3851
403.0,0.3664
404.0,0.3612
405.0,0.3615
406.0,0.3563
407.0,0.3511
408.0,0.365
409.0,0.3912
410.0,0.3423
411.0,0.3713
412.0,0.3995
413.0,0.3899
414.0,0.3952
415.0,0.3968
416.0,0.4044
417.0,0.3948
418.0,0.388
419.0,0.3936
420.0,0.3922
421.0,0.4108
422.0,0.3908
423.0,0.3822
424.0,0.4045
425.0,0.4043
426.0,0.3945
427.0,0.3875
428.0,0.3778
429.0,0.3585
430.0,0.3141
431.0,0.3114
432.0,0.4027
433.0,0.4053
434.0,0.3766
435.0,0.3935
436.0,0.4441
437.0,0.4389
438.0,0.4001
439.0,0.4134
440.0,0.4271
441.0,0.4431
442.0,0.4756
443.0,0.4631
444.0,0.4738
445.0,0.4636
446.0,0.4434
447.0,0.4801
448.0,0.4873
449.0,0.4903
450.0,0.5045
451.0,0.5236
452.0,0.5049
453.0,0.4753
454.0,0.4969
455.0,0.5001
456.0,0.5123
457.0,0.521
458.0,0.5029
459.0,0.5006
460.0,0.5018
461.0,0.5136
462.0,0.5182
463.0,0.5147
464.0,0.5072
465.0,0.5017
466.0,0.5072
467.0,0.4977
468.0,0.5037
469.0,0.5065
470.0,0.4903
471.0,0.4899
472.0,0.5162
473.0,0.5096
474.0,0.5099
475.0,0.5136
476.0,0.4975
477.0,0.4983
478.0,0.5124
479.0,0.5098
480.0,0.5113
481.0,0.5215
482.0,0.5251
483.0,0.5196
484.0,0.5096
485.0,0.4861
486.0,0.4255
487.0,0.4465
488.0,0.4899
489.0,0.4912
490.0,0.5173
491.0,0.5087
492.0,0.4805
493.0,0.4964
494.0,0.5015
495.0,0.5059
496.0,0.5091
497.0,0.5169
498.0,0.4926
499.0,0.4986
500.0,0.4836
501.0,0.4742
502.0,0.4665
503.0,0.4844
504.0,0.4691
505.0,0.4884
506.0,0.5041
507.0,0.4798
508.0,0.4659
509.0,0.4797
510.0,0.4778
511.0,0.4913
512.0,0.497
513.0,0.4705
514.0,0.4675
515.0,0.4629
516.0,0.4617
517.0,0.4104
518.0,0.4314
519.0,0.4524
520.0,0.4688
521.0,0.4731
522.0,0.4732
523.0,0.4645
524.0,0.4806
525.0,0.4855
526.0,0.4635
527.0,0.4361
528.0,0.4607
529.0,0.4851
530.0,0.4779
531.0,0.4847
532.0,0.4679
533.0,0.4542
534.0,0.4679
535.0,0.4785
536.0,0.4832
537.0,0.4645
538.0,0.4729
539.0,0.4689
540.0,0.4494
541.0,0.4514
542.0,0.4651
543.0,0.4609
544.0,0.4681
545.0,0.4668
546.0,0.4682
547.0,0.4686
548.0,0.4633
549.0,0.465
550.0,0.4706
551.0,0.465
552.0,0.4682
553.0,0.4597
554.0,0.4706
555.0,0.4714
556.0,0.4651
557.0,0.4503
558.0,0.4465
559.0,0.4376
560.0,0.4427
561.0,0.448
562.0,0.4442
563.0,0.4556
564.0,0.4426
565.0,0.4384
566.0,0.4315
567.0,0.439
568.0,0.4335
569.0,0.4201
570.0,0.4204
571.0,0.4186
572.0,0.4266
573.0,0.4308
574.0,0.4289
575.0,0.4202
576.0,0.4164
577.0,0.4213
578.0,0.4158
579.0,0.4189
580.0,0.4292
581.0,0.4331
582.0,0.4429
583.0,0.4452
584.0,0.4499
585.0,0.4395
586.0,0.4305
587.0,0.439
588.0,0.4244
589.0,0.3686
590.0,0.386
591.0,0.413
592.0,0.4052
593.0,0.4146
594.0,0.4103
595.0,0.3973
596.0,0.4192
597.0,0.413
598.0,0.4138
599.0,0.415
600.0,0.4172
601.0,0.415
602.0,0.4123
603.0,0.4198
604.0,0.427
605.0,0.4252
606.0,0.4241
607.0,0.4291
608.0,0.425
609.0,0.4264
610.0,0.424
611.0,0.4266
612.0,0.4258
613.0,0.4208
614.0,0.4156
615.0,0.4253
616.0,0.4117
617.0,0.4113
618.0,0.4274
619.0,0.4233
620.0,0.426
621.0,0.4259
622.0,0.4205
623.0,0.4136
624.0,0.407
625.0,0.4061
626.0,0.4119
627.0,0.4151
628.0,0.3702
629.0,0.3992
630.0,0.3894
631.0,0.4041
632.0,0.4004
633.0,0.415
634.0,0.413
635.0,0.4204
636.0,0.416
637.0,0.4237
638.0,0.4291
639.0,0.425
640.0,0.4218
641.0,0.4221
642.0,0.421
643.0,0.4267
644.0,0.4261
645.0,0.4264
646.0,0.4143
647.0,0.4045
648.0,0.4051
649.0,0.3966
650.0,0.4048
651.0,0.4234
652.0,0.3996
653.0,0.4182
654.0,0.4141
655.0,0.3955
656.0,0.3527
657.0,0.3626
658.0,0.4084
659.0,0.4121
660.0,0.4143
661.0,0.4174
662.0,0.4171
663.0,0.4093
664.0,0.4159
665.0,0.4176
666.0,0.4185
667.0,0.4188
668.0,0.4197
669.0,0.4267
670.0,0.4252
671.0,0.4254
672.0,0.422
673.0,0.4287
674.0,0.4274
675.0,0.4238
676.0,0.427
677.0,0.423
678.0,0.4245
679.0,0.4178
680.0,0.4213
681.0,0.4187
682.0,0.4182
683.0,0.4174
684.0,0.4153
685.0,0.4192
686.0,0.4164
687.0,0.2051
688.0,0.2709
689.0,0.273
690.0,0.2976
691.0,0.3267
692.0,0.3498
693.0,0.3463
694.0,0.345
695.0,0.3685
696.0,0.3695
697.0,0.4028
698.0,0.3963
699.0,0.3795
700.0,0.3746
701.0,0.3679
702.0,0.3733
703.0,0.3747
704.0,0.3911
705.0,0.3916
706.0,0.3929
707.0,0.394
708.0,0.3946
709.0,0.3982
710.0,0.3966
711.0,0.3971
712.0,0.3974
713.0,0.392
714.0,0.3939
715.0,0.3784
716.0,0.3779
717.0,0.3014
718.0,0.2746
719.0,0.2495
720.0,0.2586
721.0,0.3004
722.0,0.3599
723.0,0.3271
724.0,0.2848
725.0,0.2771
726.0,0.2908
727.0,0.3017
728.0,0.2752
729.0,0.2946
730.0,0.3097
731.0,0.2946
732.0,0.3248
733.0,0.3527
734.0,0.364
735.0,0.3549
736.0,0.3541
737.0,0.3556
738.0,0.3681
739.0,0.361
740.0,0.3725
741.0,0.3701
742.0,0.3718
743.0,0.3816
744.0,0.3814
745.0,0.3822
746.0,0.3839
747.0,0.3849
748.0,0.3842
749.0,0.3799
750.0,0.3797
751.0,0.3759
752.0,0.3776
753.0,0.3796
754.0,0.3805
755.0,0.3783
756.0,0.3782
757.0,0.3788
758.0,0.3739
759.0,0.3617
760.0,0.01706
761.0,0.005996
762.0,0.115
763.0,0.03466
764.0,0.06965
765.0,0.1148
766.0,0.1687
767.0,0.2466
768.0,0.3156
769.0,0.3298
770.0,0.3496
771.0,0.3563
772.0,0.3583
773.0,0.3611
774.0,0.3596
775.0,0.3571
776.0,0.3616
777.0,0.3568
778.0,0.3546
779.0,0.3549
780.0,0.353
781.0,0.3535
782.0,0.3558
783.0,0.3497
784.0,0.3515
785.0,0.3486
786.0,0.3521
787.0,0.3425
788.0,0.3366
789.0,0.3364
790.0,0.3228
791.0,0.3302
792.0,0.3285
793.0,0.3227
794.0,0.333
795.0,0.3373
796.0,0.3204
797.0,0.3202
798.0,0.3361
799.0,0.3328
800.0,0.3254
801.0,0.3228
802.0,0.3218
803.0,0.3185
804.0,0.3197
805.0,0.3207
806.0,0.333
807.0,0.3283
808.0,0.3288
809.0,0.3201
810.0,0.3159
811.0,0.313
812.0,0.2994
813.0,0.2914
814.0,0.2442
815.0,0.2435
816.0,0.2251
817.0,0.23
818.0,0.2186
819.0,0.2547
820.0,0.2363
821.0,0.2917
822.0,0.2809
823.0,0.1679
824.0,0.2667
825.0,0.2867
826.0,0.2707
827.0,0.2909
828.0,0.2317
829.0,0.2701
830.0,0.2654
831.0,0.2664
832.0,0.2556
833.0,0.2787
834.0,0.2643
835.0,0.3013
836.0,0.2809
837.0,0.3023
838.0,0.2891
839.0,0.2983
840.0,0.3058
841.0,0.2999
842.0,0.303
843.0,0.3055
844.0,0.2999
845.0,0.3118
846.0,0.3109
847.0,0.3059
848.0,0.3029
849.0,0.2943
850.0,0.282
851.0,0.2974
852.0,0.2959
853.0,0.2858
854.0,0.2459
855.0,0.2714
856.0,0.296
857.0,0.3034
858.0,0.3008
859.0,0.3016
860.0,0.3025
861.0,0.3008
862.0,0.3057
863.0,0.3129
864.0,0.2973
865.0,0.2948
866.0,0.2651
867.0,0.2767
868.0,0.3012
869.0,0.295
870.0,0.3034
871.0,0.2993
872.0,0.2983
873.0,0.2977
874.0,0.2942
875.0,0.2882
876.0,0.2911
877.0,0.2941
878.0,0.2971
879.0,0.2926
880.0,0.2863
881.0,0.2815
882.0,0.2873
883.0,0.2888
884.0,0.2872
885.0,0.2894
886.0,0.2737
887.0,0.2783
888.0,0.2815
889.0,0.2864
890.0,0.2818
891.0,0.2824
892.0,0.2714
893.0,0.2602
894.0,0.2449
895.0,0.2239
896.0,0.209
897.0,0.1711
898.0,0.1908
899.0,0.1358
900.0,0.2009
901.0,0.1422
902.0,0.1794
903.0,0.1767
904.0,0.2429
905.0,0.2319
906.0,0.2147
907.0,0.1605
908.0,0.1665
909.0,0.1857
910.0,0.1539
911.0,0.1719
912.0,0.1803
913.0,0.1557
914.0,0.1565
915.0,0.1687
916.0,0.1415
917.0,0.1895
918.0,0.1442
919.0,0.1966
920.0,0.2064
921.0,0.2141
922.0,0.1839
923.0,0.2077
924.0,0.1863
925.0,0.1828
926.0,0.1835
927.0,0.2128
928.0,0.1348
929.0,0.1175
930.0,0.08379
931.0,0.0795
932.0,0.04902
933.0,0.03646
934.0,0.01358
935.0,0.03993
936.0,0.0205
937.0,0.02062
938.0,0.02687
939.0,0.0768
940.0,0.09875
941.0,0.06662
942.0,0.08114
943.0,0.0475
944.0,0.056
945.0,0.07044
946.0,0.02823
947.0,0.06863
948.0,0.0497
949.0,0.09973
950.0,0.01763
951.0,0.09917
952.0,0.04376
953.0,0.0628
954.0,0.0843
955.0,0.06431
956.0,0.07001
957.0,0.04333
958.0,0.1073
959.0,0.07587
960.0,0.08506
961.0,0.103
962.0,0.09706
963.0,0.1185
964.0,0.1067
965.0,0.1179
966.0,0.1171
967.0,0.1156
968.0,0.1818
969.0,0.1858
970.0,0.1683
971.0,0.2045
972.0,0.193
973.0,0.156
974.0,0.1472
975.0,0.1566
976.0,0.1419
977.0,0.1757
978.0,0.161
979.0,0.1719
980.0,0.16
981.0,0.2037
982.0,0.1902
983.0,0.1803
984.0,0.2155
985.0,0.1893
986.0,0.2228
987.0,0.2145
988.0,0.2144
989.0,0.2245
990.0,0.2129
991.0,0.2247
992.0,0.2264
993.0,0.2174
994.0,0.2268
995.0,0.2271
996.0,0.2255
997.0,0.2261
998.0,0.2248
999.0,0.2242
1000.0,0.2216
1001.0,0.2255
1002.0,0.2152
1003.0,0.2213
1004.0,0.2148
1005.0,0.2083
1006.0,0.2158
1007.0,0.2207
1008.0,0.2188
1009.0,0.2168
1010.0,0.2155
1011.0,0.2197
1012.0,0.217
1013.0,0.2194
1014.0,0.2179
1015.0,0.2163
1016.0,0.2152
1017.0,0.2156
1018.0,0.2153
1019.0,0.2092
1020.0,0.2139
1021.0,0.2139
1022.0,0.2117
1023.0,0.2138
1024.0,0.2095
1025.0,0.2142
1026.0,0.2129
1027.0,0.2125
1028.0,0.2119
1029.0,0.2093
1030.0,0.2113
1031.0,0.2102
1032.0,0.2098
1033.0,0.2066
1034.0,0.2066
1035.0,0.2073
1036.0,0.2082
1037.0,0.2049
1038.0,0.2057
1039.0,0.2055
1040.0,0.2046
1041.0,0.2053
1042.0,0.2038
1043.0,0.2031
1044.0,0.2037
1045.0,0.2009
1046.0,0.1985
1047.0,0.2002
1048.0,0.2012
1049.0,0.2003
1050.0,0.1993
1051.0,0.1988
1052.0,0.1979
1053.0,0.1961
1054.0,0.1963
1055.0,0.1962
1056.0,0.1952
1057.0,0.1944
1058.0,0.1894
1059.0,0.1894
1060.0,0.1889
1061.0,0.1886
1062.0,0.1893
1063.0,0.1872
1064.0,0.1895
1065.0,0.1876
1066.0,0.1843
1067.0,0.1866
1068.0,0.1821
1069.0,0.1768
1070.0,0.1824
1071.0,0.1866
1072.0,0.1834
1073.0,0.181
1074.0,0.1872
1075.0,0.1739
1076.0,0.1868
1077.0,0.1813
1078.0,0.1768
1079.0,0.1846
1080.0,0.1786
1081.0,0.1708
1082.0,0.177
1083.0,0.1784
1084.0,0.1697
1085.0,0.1793
1086.0,0.1584
1087.0,0.1669
1088.0,0.1776
1089.0,0.1683
1090.0,0.1627
1091.0,0.176
1092.0,0.1763
1093.0,0.1395
1094.0,0.16
1095.0,0.1458
1096.0,0.137
1097.0,0.1723
1098.0,0.1333
1099.0,0.1405
1100.0,0.1269
1101.0,0.1298
1102.0,0.1213
1103.0,0.1182
1104.0,0.1186
1105.0,0.1364
1106.0,0.08917
1107.0,0.1268
1108.0,0.09844
1109.0,0.1001
1110.0,0.1237
1111.0,0.07202
1112.0,0.09991
1113.0,0.05241
1114.0,0.05902
1115.0,0.04805
1116.0,0.03274
1117.0,0.007477
1118.0,0.0369
1119.0,0.01398
1120.0,0.01696
1121.0,0.02466
1122.0,0.007209
1123.0,0.0155
1124.0,0.01302
1125.0,0.01806
1126.0,0.003445
1127.0,0.02066
1128.0,0.008949
1129.0,0.009796
1130.0,0.005881
1131.0,0.04937
1132.0,0.03664
1133.0,0.01786
1134.0,0.002585
1135.0,0.0011
1136.0,0.0132
1137.0,0.04633
1138.0,0.0316
1139.0,0.05979
1140.0,0.04504
1141.0,0.0302
1142.0,0.03694
1143.0,0.05812
1144.0,0.01499
1145.0,0.01719
1146.0,0.01849
1147.0,0.003784
1148.0,0.04948
1149.0,0.03606
1150.0,0.01728
1151.0,0.03137
1152.0,0.04275
1153.0,0.04505
1154.0,0.01703
1155.0,0.06221
1156.0,0.05336
1157.0,0.06548
1158.0,0.06455
1159.0,0.07239
1160.0,0.05967
1161.0,0.08098
1162.0,0.08056
1163.0,0.1229
1164.0,0.1005
1165.0,0.08971
1166.0,0.09332
1167.0,0.104
1168.0,0.1041
1169.0,0.1078
1170.0,0.1216
1171.0,0.1185
1172.0,0.1236
1173.0,0.1215
1174.0,0.07697
1175.0,0.1214
1176.0,0.1396
1177.0,0.1297
1178.0,0.08994
1179.0,0.1407
1180.0,0.119
1181.0,0.1231
1182.0,0.07638
1183.0,0.1225
1184.0,0.1119
1185.0,0.1053
1186.0,0.1338
1187.0,0.1245
1188.0,0.07607
1189.0,0.1156
1190.0,0.1314
1191.0,0.1189
1192.0,0.1339
1193.0,0.1263
1194.0,0.1315
1195.0,0.1204
1196.0,0.1138
1197.0,0.1332
1198.0,0.1201
1199.0,0.09403
1200.0,0.1246
1201.0,0.1172
1202.0,0.1191
1203.0,0.1165
1204.0,0.09854
1205.0,0.124
1206.0,0.141
1207.0,0.1175
1208.0,0.1182
1209.0,0.121
1210.0,0.1279
1211.0,0.119
1212.0,0.113
1213.0,0.1341
1214.0,0.1174
1215.0,0.1147
1216.0,0.1342
1217.0,0.1291
1218.0,0.133
1219.0,0.1304
1220.0,0.1333
1221.0,0.1356
1222.0,0.1314
1223.0,0.1294
1224.0,0.127
1225.0,0.1344
1226.0,0.1366
1227.0,0.1217
1228.0,0.1382
1229.0,0.1366
1230.0,0.1335
1231.0,0.1401
1232.0,0.1392
1233.0,0.1306
1234.0,0.1408
1235.0,0.1393
1236.0,0.1408
1237.0,0.1373
1238.0,0.1403
1239.0,0.1385
1240.0,0.1392
1241.0,0.1376
1242.0,0.1382
1243.0,0.1371
1244.0,0.1378
1245.0,0.1385
1246.0,0.1378
1247.0,0.137
1248.0,0.1364
1249.0,0.1372
1250.0,0.1361
1251.0,0.1338
1252.0,0.1345
1253.0,0.1321
1254.0,0.1297
1255.0,0.134
1256.0,0.1277
1257.0,0.1265
1258.0,0.1309
1259.0,0.1223
1260.0,0.1234
1261.0,0.1117
1262.0,0.1059
1263.0,0.106
1264.0,0.09244
1265.0,0.1054
1266.0,0.09819
1267.0,0.1022
1268.0,0.09335
1269.0,0.03914
1270.0,0.1009
1271.0,0.1119
1272.0,0.1128
1273.0,0.1111
1274.0,0.1122
1275.0,0.1146
1276.0,0.1167
1277.0,0.1187
1278.0,0.1229
1279.0,0.1216
1280.0,0.1203
1281.0,0.1156
1282.0,0.1129
1283.0,0.1213
1284.0,0.1239
1285.0,0.125
1286.0,0.1275
1287.0,0.124
1288.0,0.1245
1289.0,0.1175
1290.0,0.1235
1291.0,0.1258
1292.0,0.1128
1293.0,0.1221
1294.0,0.121
1295.0,0.1186
1296.0,0.11
1297.0,0.1018
1298.0,0.1146
1299.0,0.1227
1300.0,0.09572
1301.0,0.1
1302.0,0.1144
1303.0,0.09525
1304.0,0.074
1305.0,0.1117
1306.0,0.1108
1307.0,0.07828
1308.0,0.09669
1309.0,0.1087
1310.0,0.0761
1311.0,0.09096
1312.0,0.08752
1313.0,0.08401
1314.0,0.07256
1315.0,0.07004
1316.0,0.08811
1317.0,0.0824
1318.0,0.09272
1319.0,0.06387
1320.0,0.06353
1321.0,0.07707
1322.0,0.0762
1323.0,0.05055
1324.0,0.06301
1325.0,0.08587
1326.0,0.06946
1327.0,0.065
1328.0,0.05365
1329.0,0.03457
1330.0,0.04806
1331.0,0.02317
1332.0,0.02553
1333.0,0.03662
1334.0,0.03498
1335.0,0.04974
1336.0,0.03585
1337.0,0.03086
1338.0,0.03298
1339.0,0.03361
1340.0,0.03445
1341.0,0.02945
1342.0,0.0315
1343.0,0.01522
1344.0,0.009712
1345.0,0.01353
1346.0,0.004029
1347.0,0.003678
1348.0,8.506e-05
1349.0,0.0003848
1350.0,0.0004686
1351.0,4.415e-05
1352.0,3.652e-06
1353.0,1.005e-07
1354.0,5.786e-07
1355.0,1.632e-09
1356.0,4.863e-08
1357.0,7.326e-08
1358.0,1.954e-09
1359.0,2.079e-10
1360.0,8.072e-10
1361.0,8.213e-13
1362.0,2.244e-15
1363.0,1.018e-09
1364.0,4.258e-10
1365.0,7.832e-16
1366.0,4.513e-09
1367.0,1.965e-09
1368.0,6.047e-18
1369.0,1.571e-10
1370.0,7.524e-11
1371.0,4.22e-12
1372.0,1.081e-09
1373.0,2.821e-08
1374.0,1.935e-07
1375.0,2.995e-07
1376.0,5.38e-07
1377.0,2.223e-07
1378.0,2.294e-06
1379.0,9.742e-08
1380.0,8.873e-08
1381.0,2.032e-09
1382.0,9.207e-10
1383.0,1.332e-11
1384.0,1.677e-10
1385.0,1.05e-09
1386.0,7.707e-10
1387.0,1.34e-07
1388.0,3.479e-09
1389.0,8.306e-07
1390.0,6.512e-07
1391.0,4.284e-07
1392.0,2.798e-08
1393.0,1.921e-07
1394.0,4.199e-08
1395.0,2.69e-10
1396.0,1.071e-12
1397.0,6.145e-08
1398.0,2.24e-06
1399.0,1.52e-06
1400.0,4.568e-13
1401.0,1.903e-12
1402.0,1.539e-05
1403.0,1.432e-05
1404.0,3.712e-06
1405.0,1.155e-10
1406.0,6.055e-06
1407.0,1.045e-06
1408.0,5.456e-06
1409.0,1.003e-06
1410.0,1.493e-06
1411.0,1.345e-05
1412.0,2.571e-05
1413.0,0.0005896
1414.0,1.319e-06
1415.0,4.879e-07
1416.0,0.001987
1417.0,0.0003602
1418.0,0.0002952
1419.0,4.074e-05
1420.0,0.0001773
1421.0,0.000247
1422.0,0.00259
1423.0,0.0004586
1424.0,0.0009935
1425.0,0.001205
1426.0,0.001861
1427.0,0.00436
1428.0,6.989e-05
