interpolation:linear
wavelength,value
280.0,3.006e-22
280.5,9.878000000000001e-21
281.0,5.293e-20
281.5,4.094e-19
282.0,6.746e-19
282.5,1.674e-18
283.0,5.293e-18
283.5,8.617e-18
284.0,1.418e-16
284.5,4.136e-16
285.0,6.839e-16
285.5,3.414e-15
286.0,1.377e-14
286.5,6.199e-14
287.0,1.778e-13
287.5,6.856e-13
288.0,2.363e-12
288.5,7.128e-12
289.0,1.894e-11
289.5,5.712e-11
290.0,1.584e-10
290.5,3.229e-10
291.0,6.929e-10
291.5,1.989e-09
292.0,4.024e-09
292.5,5.659e-09
293.0,1.217e-08
293.5,2.972e-08
294.0,4.656e-08
294.5,6.379e-08
295.0,1.083e-07
295.5,1.832e-07
296.0,3.571e-07
296.5,5.054e-07
297.0,6.911e-07
297.5,1.889e-06
298.0,3.034e-06
298.5,3.101e-06
299.0,6.958e-06
299.5,1.197e-05
300.0,1.346e-05
300.5,1.997e-05
301.0,3.775e-05
301.5,6.278e-05
302.0,5.493e-05
302.5,0.0001109
303.0,0.0002088
303.5,0.0002729
304.0,0.0002656
304.5,0.0004359
305.0,0.0007576
305.5,0.0009478
306.0,0.0009497
306.5,0.001253
307.0,0.002118
307.5,0.003201
308.0,0.003453
308.5,0.00435
309.0,0.004434
309.5,0.00559
310.0,0.00587
310.5,0.009718
311.0,0.01264
311.5,0.0124
312.0,0.01339
312.5,0.01715
313.0,0.0191
313.5,0.0181
314.0,0.02404
314.5,0.0231
315.0,0.03079
315.5,0.02478
316.0,0.02309
316.5,0.03505
317.0,0.04348
317.5,0.04454
318.0,0.03609
318.5,0.04816
319.0,0.05926
319.5,0.04558
320.0,0.05461
320.5,0.07354
321.0,0.06993
321.5,0.0675
322.0,0.06707
322.5,0.05857
323.0,0.06107
323.5,0.07833
324.0,0.09212
324.5,0.09182
325.0,0.07751
325.5,0.1035
326.0,0.1279
326.5,0.1312
327.0,0.1296
327.5,0.1238
328.0,0.1069
328.5,0.1167
329.0,0.1442
329.5,0.1652
330.0,0.1655
330.5,0.1294
331.0,0.1308
331.5,0.1353
332.0,0.15
332.5,0.1502
333.0,0.1488
333.5,0.1322
334.0,0.1351
334.5,0.1593
335.0,0.1516
335.5,0.1776
336.0,0.1229
336.5,0.1428
337.0,0.1161
337.5,0.144
338.0,0.1432
338.5,0.1661
339.0,0.1646
339.5,0.1584
340.0,0.1854
340.5,0.1675
341.0,0.1639
341.5,0.1508
342.0,0.1804
342.5,0.169
343.0,0.1857
343.5,0.1748
344.0,0.1289
344.5,0.1305
345.0,0.1731
345.5,0.1771
346.0,0.1507
346.5,0.1708
347.0,0.1832
347.5,0.1482
348.0,0.1693
348.5,0.1694
349.0,0.1573
349.5,0.1558
350.0,0.1929
350.5,0.2036
351.0,0.1818
351.5,0.1765
352.0,0.1899
352.5,0.1484
353.0,0.1872
353.5,0.2004
354.0,0.2082
354.5,0.2112
355.0,0.2105
355.5,0.1904
356.0,0.1994
356.5,0.1703
357.0,0.1408
357.5,0.1724
358.0,0.1367
358.5,0.1169
359.0,0.1635
359.5,0.2084
360.0,0.2211
360.5,0.1768
361.0,0.1613
361.5,0.186
362.0,0.1611
362.5,0.2231
363.0,0.2006
363.5,0.185
364.0,0.2264
364.5,0.1936
365.0,0.1973
365.5,0.2479
366.0,0.2628
366.5,0.2472
367.0,0.2409
367.5,0.2501
368.0,0.2191
368.5,0.2212
369.0,0.239
369.5,0.255
370.0,0.272
370.5,0.2113
371.0,0.2259
371.5,0.2828
372.0,0.1878
372.5,0.2254
373.0,0.2294
373.5,0.1494
374.0,0.2172
374.5,0.1801
375.0,0.1751
375.5,0.2616
376.0,0.217
376.5,0.225
377.0,0.2384
377.5,0.2791
378.0,0.3026
378.5,0.2862
379.0,0.2363
379.5,0.2159
380.0,0.2246
380.5,0.2722
381.0,0.2731
381.5,0.2167
382.0,0.1926
382.5,0.1644
383.0,0.1523
383.5,0.1468
384.0,0.1621
384.5,0.2386
385.0,0.2368
385.5,0.2207
386.0,0.1892
386.5,0.2487
387.0,0.2068
387.5,0.2324
388.0,0.2147
388.5,0.2124
389.0,0.2294
389.5,0.2781
390.0,0.2793
390.5,0.2572
391.0,0.3029
391.5,0.3092
392.0,0.2606
392.5,0.2335
393.0,0.13
393.5,0.09458
394.0,0.1926
394.5,0.245
395.0,0.2992
395.5,0.3041
396.0,0.2638
396.5,0.1544
397.0,0.1159
397.5,0.2359
398.0,0.3305
398.5,0.3418
399.0,0.3705
399.5,0.3695
400.0,0.3838
401.0,0.3872
402.0,0.4092
403.0,0.3893
404.0,0.3837
405.0,0.3841
406.0,0.3785
407.0,0.3729
408.0,0.3877
409.0,0.4154
410.0,0.3635
411.0,0.3942
412.0,0.4241
413.0,0.4139
414.0,0.4195
415.0,0.4212
416.0,0.4292
417.0,0.419
418.0,0.4117
419.0,0.4176
420.0,0.4161
421.0,0.4358
422.0,0.4146
423.0,0.4054
424.0,0.4291
425.0,0.4288
426.0,0.4184
427.0,0.411
428.0,0.4006
429.0,0.3801
430.0,0.333
431.0,0.3302
432.0,0.4269
433.0,0.4296
434.0,0.3992
435.0,0.4171
436.0,0.4706
437.0,0.465
438.0,0.4239
439.0,0.4381
440.0,0.4525
441.0,0.4695
442.0,0.5038
443.0,0.4906
444.0,0.5019
445.0,0.4911
446.0,0.4696
447.0,0.5084
448.0,0.5161
449.0,0.5191
450.0,0.5341
451.0,0.5543
452.0,0.5345
453.0,0.5031
454.0,0.5259
455.0,0.5293
456.0,0.5422
457.0,0.5514
458.0,0.5323
459.0,0.5298
460.0,0.5311
461.0,0.5436
462.0,0.5484
463.0,0.5447
464.0,0.5366
465.0,0.5307
466.0,0.5365
467.0,0.5265
468.0,0.5328
469.0,0.5357
470.0,0.5186
471.0,0.5182
472.0,0.546
473.0,0.539
474.0,0.5393
475.0,0.5434
476.0,0.5263
477.0,0.5273
478.0,0.5422
479.0,0.5394
480.0,0.5409
481.0,0.5517
482.0,0.5553
483.0,0.5495
484.0,0.5388
485.0,0.5139
486.0,0.4498
487.0,0.472
488.0,0.5178
489.0,0.5192
490.0,0.5467
491.0,0.5376
492.0,0.5078
493.0,0.5246
494.0,0.53
495.0,0.5346
496.0,0.5379
497.0,0.5462
498.0,0.5206
499.0,0.5269
500.0,0.5112
501.0,0.5013
502.0,0.4933
503.0,0.5123
504.0,0.4964
505.0,0.5165
506.0,0.5331
507.0,0.5075
508.0,0.4926
509.0,0.5072
510.0,0.5051
511.0,0.5193
512.0,0.5253
513.0,0.4973
514.0,0.4941
515.0,0.4892
516.0,0.4879
517.0,0.4337
518.0,0.4559
519.0,0.4782
520.0,0.4954
521.0,0.5
522.0,0.5002
523.0,0.491
524.0,0.5081
525.0,0.5133
526.0,0.4901
527.0,0.4612
528.0,0.4873
529.0,0.5132
530.0,0.5055
531.0,0.5127
532.0,0.495
533.0,0.4805
534.0,0.495
535.0,0.5061
536.0,0.5111
537.0,0.4913
538.0,0.5001
539.0,0.4959
540.0,0.4753
541.0,0.4775
542.0,0.4921
543.0,0.4876
544.0,0.4953
545.0,0.4939
546.0,0.4954
547.0,0.4958
548.0,0.4902
549.0,0.4919
550.0,0.4978
551.0,0.4919
552.0,0.4953
553.0,0.4863
554.0,0.4979
555.0,0.4987
556.0,0.492
557.0,0.4765
558.0,0.4724
559.0,0.4631
560.0,0.4686
561.0,0.4742
562.0,0.4702
563.0,0.4824
564.0,0.4687
565.0,0.4642
566.0,0.457
567.0,0.465
568.0,0.4593
569.0,0.4455
570.0,0.4457
571.0,0.4438
572.0,0.4524
573.0,0.4569
574.0,0.455
575.0,0.4458
576.0,0.4418
577.0,0.4469
578.0,0.4411
579.0,0.4442
580.0,0.4548
581.0,0.4588
582.0,0.469
583.0,0.4714
584.0,0.4763
585.0,0.4651
586.0,0.4556
587.0,0.4647
588.0,0.4497
589.0,0.3912
590.0,0.4097
591.0,0.4379
592.0,0.4298
593.0,0.4395
594.0,0.435
595.0,0.4216
596.0,0.4441
597.0,0.4378
598.0,0.4385
599.0,0.4397
600.0,0.4418
601.0,0.4393
602.0,0.4365
603.0,0.4443
604.0,0.452
605.0,0.45
606.0,0.4488
607.0,0.454
608.0,0.4496
609.0,0.451
610.0,0.4484
611.0,0.4511
612.0,0.4502
613.0,0.4449
614.0,0.4394
615.0,0.4495
616.0,0.4352
617.0,0.4346
618.0,0.4517
619.0,0.4473
620.0,0.4501
621.0,0.4501
622.0,0.4444
623.0,0.4372
624.0,0.4301
625.0,0.4292
626.0,0.4353
627.0,0.4388
628.0,0.3932
629.0,0.4226
630.0,0.4123
631.0,0.4273
632.0,0.4233
633.0,0.4385
634.0,0.4361
635.0,0.4439
636.0,0.4391
637.0,0.4471
638.0,0.4527
639.0,0.4483
640.0,0.4448
641.0,0.4451
642.0,0.4438
643.0,0.4499
644.0,0.4491
645.0,0.4495
646.0,0.437
647.0,0.4271
648.0,0.4277
649.0,0.4188
650.0,0.4268
651.0,0.4463
652.0,0.4218
653.0,0.4408
654.0,0.4364
655.0,0.4171
656.0,0.3718
657.0,0.3822
658.0,0.4302
659.0,0.434
660.0,0.4363
661.0,0.4395
662.0,0.4393
663.0,0.4311
664.0,0.4379
665.0,0.4395
666.0,0.4404
667.0,0.4407
668.0,0.4416
669.0,0.4488
670.0,0.4472
671.0,0.4474
672.0,0.4438
673.0,0.4508
674.0,0.4494
675.0,0.4456
676.0,0.4489
677.0,0.4447
678.0,0.4462
679.0,0.4392
680.0,0.4429
681.0,0.4401
682.0,0.4395
683.0,0.4388
684.0,0.4365
685.0,0.4406
686.0,0.4376
687.0,0.222
688.0,0.2898
689.0,0.2919
690.0,0.3171
691.0,0.3466
692.0,0.3699
693.0,0.3662
694.0,0.3645
695.0,0.3885
696.0,0.3895
697.0,0.4236
698.0,0.4168
699.0,0.3998
700.0,0.3946
701.0,0.3879
702.0,0.3933
703.0,0.3947
704.0,0.4115
705.0,0.4121
706.0,0.4133
707.0,0.4143
708.0,0.415
709.0,0.4185
710.0,0.417
711.0,0.4174
712.0,0.4175
713.0,0.412
714.0,0.414
715.0,0.398
716.0,0.3976
717.0,0.3195
718.0,0.2912
719.0,0.2648
720.0,0.2748
721.0,0.3177
722.0,0.3791
723.0,0.3452
724.0,0.3015
725.0,0.2936
726.0,0.3081
727.0,0.3189
728.0,0.2917
729.0,0.3114
730.0,0.3277
731.0,0.3118
732.0,0.3428
733.0,0.3715
734.0,0.3831
735.0,0.3737
736.0,0.3729
737.0,0.3744
738.0,0.3869
739.0,0.3794
740.0,0.3913
741.0,0.3886
742.0,0.3903
743.0,0.4006
744.0,0.4002
745.0,0.401
746.0,0.4028
747.0,0.4038
748.0,0.4031
749.0,0.3985
750.0,0.3984
751.0,0.3944
752.0,0.3962
753.0,0.3982
754.0,0.3991
755.0,0.3968
756.0,0.3968
757.0,0.3973
758.0,0.3922
759.0,0.3799
760.0,0.02008
761.0,0.007244
762.0,0.1265
763.0,0.0399
764.0,0.07815
765.0,0.1263
766.0,0.1825
767.0,0.2629
768.0,0.3331
769.0,0.3472
770.0,0.3672
771.0,0.3739
772.0,0.3758
773.0,0.3788
774.0,0.3772
775.0,0.3745
776.0,0.3792
777.0,0.3742
778.0,0.3719
779.0,0.3722
780.0,0.3702
781.0,0.3707
782.0,0.373
783.0,0.3667
784.0,0.3686
785.0,0.3655
786.0,0.3693
787.0,0.3595
788.0,0.3535
789.0,0.3532
790.0,0.3394
791.0,0.3468
792.0,0.3449
793.0,0.3389
794.0,0.3492
795.0,0.3538
796.0,0.3367
797.0,0.3366
798.0,0.3527
799.0,0.3493
800.0,0.3418
801.0,0.3392
802.0,0.3381
803.0,0.3348
804.0,0.336
805.0,0.3367
806.0,0.3494
807.0,0.3445
808.0,0.345
809.0,0.3361
810.0,0.3319
811.0,0.329
812.0,0.3154
813.0,0.307
814.0,0.2583
815.0,0.2575
816.0,0.2382
817.0,0.2433
818.0,0.2315
819.0,0.2689
820.0,0.2497
821.0,0.3068
822.0,0.2956
823.0,0.1787
824.0,0.2813
825.0,0.3015
826.0,0.2851
827.0,0.3059
828.0,0.2451
829.0,0.2844
830.0,0.2796
831.0,0.2806
832.0,0.2694
833.0,0.2932
834.0,0.2784
835.0,0.3163
836.0,0.2957
837.0,0.3174
838.0,0.3039
839.0,0.3132
840.0,0.321
841.0,0.3149
842.0,0.318
843.0,0.3203
844.0,0.3145
845.0,0.3269
846.0,0.3259
847.0,0.3206
848.0,0.3175
849.0,0.3085
850.0,0.2957
851.0,0.3119
852.0,0.3103
853.0,0.2995
854.0,0.2579
855.0,0.2844
856.0,0.3103
857.0,0.318
858.0,0.3153
859.0,0.3161
860.0,0.317
861.0,0.3152
862.0,0.3203
863.0,0.3279
864.0,0.3116
865.0,0.3089
866.0,0.2778
867.0,0.2899
868.0,0.3155
869.0,0.309
870.0,0.3179
871.0,0.3135
872.0,0.3125
873.0,0.3119
874.0,0.3082
875.0,0.3019
876.0,0.305
877.0,0.3081
878.0,0.3113
879.0,0.3065
880.0,0.3
881.0,0.2949
882.0,0.3011
883.0,0.3026
884.0,0.301
885.0,0.3033
886.0,0.287
887.0,0.2916
888.0,0.2951
889.0,0.3001
890.0,0.2955
891.0,0.296
892.0,0.2847
893.0,0.2732
894.0,0.2577
895.0,0.2363
896.0,0.2207
897.0,0.1814
898.0,0.202
899.0,0.1445
900.0,0.2121
901.0,0.1514
902.0,0.1899
903.0,0.1874
904.0,0.2556
905.0,0.2443
906.0,0.2263
907.0,0.1705
908.0,0.1765
909.0,0.1964
910.0,0.1637
911.0,0.182
912.0,0.1909
913.0,0.1656
914.0,0.1663
915.0,0.1794
916.0,0.1505
917.0,0.2008
918.0,0.1535
919.0,0.2079
920.0,0.2175
921.0,0.2258
922.0,0.1944
923.0,0.2189
924.0,0.1973
925.0,0.1935
926.0,0.1944
927.0,0.2249
928.0,0.1441
929.0,0.1262
930.0,0.09074
931.0,0.08617
932.0,0.05387
933.0,0.04037
934.0,0.01556
935.0,0.04398
936.0,0.02296
937.0,0.02308
938.0,0.02995
939.0,0.08327
940.0,0.1064
941.0,0.07249
942.0,0.08798
943.0,0.05202
944.0,0.06071
945.0,0.07647
946.0,0.0313
947.0,0.0747
948.0,0.05414
949.0,0.1078
950.0,0.01978
951.0,0.1072
952.0,0.04802
953.0,0.06833
954.0,0.09107
955.0,0.06989
956.0,0.07516
957.0,0.04756
958.0,0.1148
959.0,0.08189
960.0,0.09181
961.0,0.1104
962.0,0.1041
963.0,0.1265
964.0,0.114
965.0,0.1259
966.0,0.1251
967.0,0.1236
968.0,0.1918
969.0,0.1964
970.0,0.178
971.0,0.2153
972.0,0.2034
973.0,0.1655
974.0,0.1561
975.0,0.1659
976.0,0.1509
977.0,0.1854
978.0,0.1704
979.0,0.1817
980.0,0.1692
981.0,0.2144
982.0,0.2006
983.0,0.1903
984.0,0.2263
985.0,0.1997
986.0,0.2337
987.0,0.2252
988.0,0.2251
989.0,0.2352
990.0,0.2236
991.0,0.2355
992.0,0.2372
993.0,0.2281
994.0,0.2376
995.0,0.2379
996.0,0.2362
997.0,0.2369
998.0,0.2355
999.0,0.2348
1000.0,0.2323
1001.0,0.2362
1002.0,0.2258
1003.0,0.2318
1004.0,0.2251
1005.0,0.2182
1006.0,0.2261
1007.0,0.2312
1008.0,0.2293
1009.0,0.2273
1010.0,0.226
1011.0,0.2302
1012.0,0.2274
1013.0,0.2298
1014.0,0.2282
1015.0,0.2266
1016.0,0.2255
1017.0,0.2259
1018.0,0.2255
1019.0,0.2192
1020.0,0.2241
1021.0,0.2241
1022.0,0.2218
1023.0,0.2241
1024.0,0.2196
1025.0,0.2244
1026.0,0.223
1027.0,0.2226
1028.0,0.222
1029.0,0.2192
1030.0,0.2213
1031.0,0.2202
1032.0,0.2197
1033.0,0.2164
1034.0,0.2165
1035.0,0.2171
1036.0,0.2181
1037.0,0.2146
1038.0,0.2155
1039.0,0.2153
1040.0,0.2144
1041.0,0.2151
1042.0,0.2136
1043.0,0.2128
1044.0,0.2135
1045.0,0.2105
1046.0,0.2081
1047.0,0.2098
1048.0,0.2108
1049.0,0.21
1050.0,0.2089
1051.0,0.2084
1052.0,0.2074
1053.0,0.2056
1054.0,0.2058
1055.0,0.2057
1056.0,0.2047
1057.0,0.2039
1058.0,0.1987
1059.0,0.1987
1060.0,0.1982
1061.0,0.1979
1062.0,0.1986
1063.0,0.1965
1064.0,0.1989
1065.0,0.1969
1066.0,0.1935
1067.0,0.1958
1068.0,0.1911
1069.0,0.1856
1070.0,0.1915
1071.0,0.1958
1072.0,0.1925
1073.0,0.1899
1074.0,0.1963
1075.0,0.1827
1076.0,0.196
1077.0,0.1904
1078.0,0.1857
1079.0,0.1935
1080.0,0.1875
1081.0,0.1795
1082.0,0.1857
1083.0,0.1871
1084.0,0.1784
1085.0,0.1882
1086.0,0.1667
1087.0,0.1754
1088.0,0.1863
1089.0,0.1769
1090.0,0.1712
1091.0,0.1848
1092.0,0.185
1093.0,0.1472
1094.0,0.168
1095.0,0.1539
1096.0,0.1447
1097.0,0.1807
1098.0,0.141
1099.0,0.1485
1100.0,0.1344
1101.0,0.1374
1102.0,0.1286
1103.0,0.1255
1104.0,0.1259
1105.0,0.1443
1106.0,0.09551
1107.0,0.1343
1108.0,0.105
1109.0,0.1067
1110.0,0.1312
1111.0,0.07741
1112.0,0.1064
1113.0,0.05673
1114.0,0.0639
1115.0,0.05214
1116.0,0.036
1117.0,0.00854
1118.0,0.04049
1119.0,0.0157
1120.0,0.01913
1121.0,0.02761
1122.0,0.008343
1123.0,0.01746
1124.0,0.01468
1125.0,0.02024
1126.0,0.004079
1127.0,0.02313
1128.0,0.01031
1129.0,0.01126
1130.0,0.006775
1131.0,0.05417
1132.0,0.0404
1133.0,0.02016
1134.0,0.003064
1135.0,0.001287
1136.0,0.01506
1137.0,0.05102
1138.0,0.03492
1139.0,0.0647
1140.0,0.04916
1141.0,0.03335
1142.0,0.04058
1143.0,0.06324
1144.0,0.01674
1145.0,0.01942
1146.0,0.02089
1147.0,0.004487
1148.0,0.05396
1149.0,0.03962
1150.0,0.01912
1151.0,0.03465
1152.0,0.04681
1153.0,0.049
1154.0,0.01913
1155.0,0.06732
1156.0,0.05799
1157.0,0.07051
1158.0,0.06954
1159.0,0.0778
1160.0,0.06419
1161.0,0.08646
1162.0,0.0861
1163.0,0.1301
1164.0,0.1067
1165.0,0.0957
1166.0,0.09914
1167.0,0.1103
1168.0,0.1104
1169.0,0.1144
1170.0,0.1286
1171.0,0.1253
1172.0,0.1304
1173.0,0.1284
1174.0,0.08212
1175.0,0.128
1176.0,0.1467
1177.0,0.1367
1178.0,0.09535
1179.0,0.1479
1180.0,0.1257
1181.0,0.1299
1182.0,0.08134
1183.0,0.1292
1184.0,0.1182
1185.0,0.1115
1186.0,0.1409
1187.0,0.1314
1188.0,0.08119
1189.0,0.122
1190.0,0.1383
1191.0,0.1257
1192.0,0.1408
1193.0,0.133
1194.0,0.1384
1195.0,0.127
1196.0,0.1203
1197.0,0.14
1198.0,0.1263
1199.0,0.09969
1200.0,0.1312
1201.0,0.1237
1202.0,0.1254
1203.0,0.1229
1204.0,0.1042
1205.0,0.1305
1206.0,0.148
1207.0,0.1239
1208.0,0.1244
1209.0,0.1273
1210.0,0.1345
1211.0,0.1253
1212.0,0.1194
1213.0,0.141
1214.0,0.1239
1215.0,0.1211
1216.0,0.141
1217.0,0.1358
1218.0,0.1397
1219.0,0.1371
1220.0,0.14
1221.0,0.1423
1222.0,0.138
1223.0,0.136
1224.0,0.1336
1225.0,0.1412
1226.0,0.1433
1227.0,0.1281
1228.0,0.1449
1229.0,0.1433
1230.0,0.1401
1231.0,0.1468
1232.0,0.1458
1233.0,0.1372
1234.0,0.1475
1235.0,0.146
1236.0,0.1475
1237.0,0.1439
1238.0,0.147
1239.0,0.1451
1240.0,0.1458
1241.0,0.1442
1242.0,0.1447
1243.0,0.1436
1244.0,0.1443
1245.0,0.1451
1246.0,0.1443
1247.0,0.1435
1248.0,0.1429
1249.0,0.1438
1250.0,0.1426
1251.0,0.1402
1252.0,0.141
1253.0,0.1385
1254.0,0.1362
1255.0,0.1405
1256.0,0.1341
1257.0,0.1329
1258.0,0.1373
1259.0,0.1286
1260.0,0.1298
1261.0,0.118
1262.0,0.1121
1263.0,0.1122
1264.0,0.09838
1265.0,0.1116
1266.0,0.1042
1267.0,0.1082
1268.0,0.09926
1269.0,0.04323
1270.0,0.107
1271.0,0.1181
1272.0,0.119
1273.0,0.1172
1274.0,0.1183
1275.0,0.1208
1276.0,0.1229
1277.0,0.1249
1278.0,0.1291
1279.0,0.1278
1280.0,0.1263
1281.0,0.1214
1282.0,0.1184
1283.0,0.1272
1284.0,0.13
1285.0,0.1311
1286.0,0.1336
1287.0,0.1301
1288.0,0.1305
1289.0,0.1236
1290.0,0.1295
1291.0,0.1319
1292.0,0.1188
1293.0,0.1281
1294.0,0.127
1295.0,0.1247
1296.0,0.1159
1297.0,0.1075
1298.0,0.1205
1299.0,0.1287
1300.0,0.1011
1301.0,0.1056
1302.0,0.1203
1303.0,0.1005
1304.0,0.07874
1305.0,0.1174
1306.0,0.1166
1307.0,0.08304
1308.0,0.1019
1309.0,0.1145
1310.0,0.08082
1311.0,0.09607
1312.0,0.09249
1313.0,0.089
1314.0,0.07712
1315.0,0.07457
1316.0,0.09318
1317.0,0.08726
1318.0,0.09789
1319.0,0.06818
1320.0,0.06768
1321.0,0.08179
1322.0,0.08103
1323.0,0.05436
1324.0,0.06721
1325.0,0.09095
1326.0,0.07392
1327.0,0.06931
1328.0,0.05744
1329.0,0.03754
1330.0,0.05183
1331.0,0.02551
1332.0,0.02797
1333.0,0.04
1334.0,0.03775
1335.0,0.05359
1336.0,0.03897
1337.0,0.03357
1338.0,0.03593
1339.0,0.03656
1340.0,0.03729
1341.0,0.03229
1342.0,0.03446
1343.0,0.01716
1344.0,0.01087
1345.0,0.01525
1346.0,0.004755
1347.0,0.004388
1348.0,0.0001098
1349.0,0.0004909
1350.0,0.0005936
1351.0,5.989e-05
1352.0,5.273e-06
1353.0,1.373e-07
1354.0,8.205e-07
1355.0,1.893e-09
1356.0,6.622e-08
1357.0,9.99e-08
1358.0,2.291e-09
1359.0,2.154e-10
1360.0,8.912e-10
1361.0,8.248e-13
1362.0,2.248e-15
1363.0,1.066e-09
1364.0,4.507e-10
1365.0,7.841e-16
1366.0,4.839e-09
1367.0,2.21e-09
1368.0,6.053e-18
1369.0,1.664e-10
1370.0,7.74e-11
1371.0,4.281e-12
1372.0,1.225e-09
1373.0,3.614e-08
1374.0,2.689e-07
1375.0,4.115e-07
1376.0,7.667e-07
1377.0,3.153e-07
1378.0,3.323e-06
1379.0,1.377e-07
1380.0,1.232e-07
1381.0,2.739e-09
1382.0,1.025e-09
1383.0,1.441e-11
1384.0,1.751e-10
1385.0,1.292e-09
1386.0,8.231e-10
1387.0,1.753e-07
1388.0,4.711e-09
1389.0,1.189e-06
1390.0,9.331e-07
1391.0,6.075e-07
1392.0,3.909e-08
1393.0,2.734e-07
1394.0,5.301e-08
1395.0,3.158e-10
1396.0,1.079e-12
1397.0,8.651e-08
1398.0,3.264e-06
1399.0,2.212e-06
1400.0,4.583e-13
1401.0,1.922e-12
1402.0,2.093e-05
1403.0,2e-05
1404.0,5.27e-06
1405.0,1.278e-10
1406.0,8.827e-06
1407.0,1.432e-06
1408.0,7.916e-06
1409.0,1.462e-06
1410.0,2.127e-06
1411.0,1.868e-05
1412.0,3.478e-05
1413.0,0.0007578
1414.0,1.867e-06
1415.0,6.958e-07
1416.0,0.002385
1417.0,0.0004468
1418.0,0.0003826
1419.0,5.32e-05
1420.0,0.0002299
1421.0,0.0003082
1422.0,0.003113
1423.0,0.0005525
1424.0,0.001177
1425.0,0.001458
1426.0,0.002188
1427.0,0.005055
1428.0,9.154e-05
1429.0,0.003098
