interpolation:linear
wavelength,value
280.0,1.049e-21
280.5,3.375e-20
281.0,1.796e-19
281.5,5.24e-19
282.0,9.463e-19
282.5,2.353e-18
283.0,7.416e-18
283.5,1.205e-17
284.0,1.95e-16
284.5,5.64e-16
285.0,1.108e-15
285.5,5.346e-15
286.0,2.136e-14
286.5,9.458e-14
287.0,2.686e-13
287.5,1.022e-12
288.0,3.154e-12
288.5,9.854e-12
289.0,2.677e-11
289.5,8.191e-11
290.0,2.29e-10
290.5,4.69e-10
291.0,1.011e-09
291.5,2.908e-09
292.0,6.037e-09
292.5,8.69e-09
293.0,1.921e-08
293.5,4.857e-08
294.0,7.787e-08
294.5,1.025e-07
295.0,1.774e-07
295.5,4.032e-07
296.0,7.275e-07
296.5,1.051e-06
297.0,1.467e-06
297.5,4.156e-06
298.0,6.921e-06
298.5,7.305e-06
299.0,1.697e-05
299.5,3.123e-05
300.0,3.667e-05
300.5,5.717e-05
301.0,0.0001184
301.5,0.0002182
302.0,0.0002038
302.5,0.0004092
303.0,0.000763
303.5,0.0009864
304.0,0.0009465
304.5,0.001491
305.0,0.002437
305.5,0.002926
306.0,0.002884
306.5,0.003702
307.0,0.005869
307.5,0.008313
308.0,0.008873
308.5,0.01081
309.0,0.01086
309.5,0.01291
310.0,0.01321
310.5,0.02159
311.0,0.0275
311.5,0.02672
312.0,0.02756
312.5,0.03424
313.0,0.03755
313.5,0.03611
314.0,0.04628
314.5,0.04239
315.0,0.05603
315.5,0.04617
316.0,0.04139
316.5,0.06078
317.0,0.07544
317.5,0.07804
318.0,0.06182
318.5,0.07899
319.0,0.09511
319.5,0.07579
320.0,0.09128
320.5,0.1176
321.0,0.1075
321.5,0.1033
322.0,0.1072
322.5,0.09339
323.0,0.09471
323.5,0.1183
324.0,0.1385
324.5,0.1396
325.0,0.1197
325.5,0.1561
326.0,0.1916
326.5,0.1936
327.0,0.1924
327.5,0.1851
328.0,0.163
328.5,0.1738
329.0,0.2105
329.5,0.2398
330.0,0.2413
330.5,0.1915
331.0,0.1946
331.5,0.1992
332.0,0.2173
332.5,0.2159
333.0,0.2148
333.5,0.1931
334.0,0.1977
334.5,0.23
335.0,0.2172
335.5,0.2538
336.0,0.1757
336.5,0.2053
337.0,0.1679
337.5,0.2087
338.0,0.2051
338.5,0.2371
339.0,0.2349
339.5,0.226
340.0,0.2654
340.5,0.2395
341.0,0.2337
341.5,0.2148
342.0,0.2569
342.5,0.2405
343.0,0.2645
343.5,0.249
344.0,0.184
344.5,0.186
345.0,0.2464
345.5,0.2518
346.0,0.2141
346.5,0.2426
347.0,0.2605
347.5,0.2107
348.0,0.2404
348.5,0.2404
349.0,0.2232
349.5,0.2211
350.0,0.2736
350.5,0.2887
351.0,0.2579
351.5,0.2506
352.0,0.2694
352.5,0.2104
353.0,0.2652
353.5,0.2838
354.0,0.2947
354.5,0.299
355.0,0.2981
355.5,0.2695
356.0,0.2821
356.5,0.2409
357.0,0.1991
357.5,0.2438
358.0,0.1933
358.5,0.1653
359.0,0.2312
359.5,0.2947
360.0,0.3125
360.5,0.2499
361.0,0.228
361.5,0.2627
362.0,0.2274
362.5,0.3149
363.0,0.283
363.5,0.2609
364.0,0.3192
364.5,0.273
365.0,0.2781
365.5,0.3492
366.0,0.3703
366.5,0.3481
367.0,0.3392
367.5,0.3521
368.0,0.3083
368.5,0.3112
369.0,0.3363
369.5,0.3586
370.0,0.3825
370.5,0.297
371.0,0.3175
371.5,0.3974
372.0,0.2639
372.5,0.3165
373.0,0.3222
373.5,0.2097
374.0,0.3049
374.5,0.2526
375.0,0.2457
375.5,0.3669
376.0,0.3043
376.5,0.3154
377.0,0.3341
377.5,0.3911
378.0,0.4241
378.5,0.401
379.0,0.331
379.5,0.3024
380.0,0.3145
380.5,0.3812
381.0,0.3822
381.5,0.3032
382.0,0.2694
382.5,0.2298
383.0,0.2129
383.5,0.2052
384.0,0.2264
384.5,0.3332
385.0,0.3306
385.5,0.308
386.0,0.264
386.5,0.3469
387.0,0.2884
387.5,0.324
388.0,0.2993
388.5,0.296
389.0,0.3197
389.5,0.3874
390.0,0.3889
390.5,0.3581
391.0,0.4217
391.5,0.4303
392.0,0.3626
392.5,0.3248
393.0,0.1808
393.5,0.1315
394.0,0.2677
394.5,0.3405
395.0,0.4156
395.5,0.4223
396.0,0.3663
396.5,0.2143
397.0,0.1609
397.5,0.3273
398.0,0.4585
398.5,0.4741
399.0,0.5137
399.5,0.5122
400.0,0.532
401.0,0.5383
402.0,0.5685
403.0,0.5406
404.0,0.5326
405.0,0.5329
406.0,0.5247
407.0,0.5167
408.0,0.5371
409.0,0.5753
410.0,0.5031
411.0,0.5454
412.0,0.5863
413.0,0.572
414.0,0.5795
415.0,0.5815
416.0,0.5922
417.0,0.5779
418.0,0.5676
419.0,0.5755
420.0,0.5732
421.0,0.6001
422.0,0.5707
423.0,0.5578
424.0,0.5902
425.0,0.5895
426.0,0.5748
427.0,0.5643
428.0,0.55
429.0,0.5214
430.0,0.4566
431.0,0.4526
432.0,0.5849
433.0,0.5884
434.0,0.5466
435.0,0.571
436.0,0.6439
437.0,0.6358
438.0,0.5793
439.0,0.5989
440.0,0.6184
441.0,0.6412
442.0,0.6879
443.0,0.67
444.0,0.685
445.0,0.6702
446.0,0.6402
447.0,0.6927
448.0,0.7034
449.0,0.7068
450.0,0.727
451.0,0.7542
452.0,0.727
453.0,0.684
454.0,0.7146
455.0,0.7191
456.0,0.7364
457.0,0.7488
458.0,0.7231
459.0,0.7196
460.0,0.7215
461.0,0.7383
462.0,0.7444
463.0,0.7393
464.0,0.7277
465.0,0.7191
466.0,0.7265
467.0,0.7131
468.0,0.7216
469.0,0.7254
470.0,0.7023
471.0,0.7016
472.0,0.7392
473.0,0.7297
474.0,0.7304
475.0,0.7363
476.0,0.7139
477.0,0.7155
478.0,0.7356
479.0,0.7315
480.0,0.7332
481.0,0.7473
482.0,0.7518
483.0,0.7433
484.0,0.7284
485.0,0.6943
486.0,0.6073
487.0,0.6368
488.0,0.6986
489.0,0.7006
490.0,0.7374
491.0,0.7249
492.0,0.6846
493.0,0.7071
494.0,0.7143
495.0,0.7205
496.0,0.725
497.0,0.7362
498.0,0.7017
499.0,0.7106
500.0,0.6896
501.0,0.6766
502.0,0.6665
503.0,0.693
504.0,0.6735
505.0,0.6992
506.0,0.7218
507.0,0.6869
508.0,0.6661
509.0,0.6853
510.0,0.682
511.0,0.7007
512.0,0.7085
513.0,0.6707
514.0,0.6663
515.0,0.6597
516.0,0.658
517.0,0.5848
518.0,0.6148
519.0,0.6448
520.0,0.6682
521.0,0.6745
522.0,0.6749
523.0,0.6626
524.0,0.6861
525.0,0.6937
526.0,0.6625
527.0,0.6239
528.0,0.6595
529.0,0.6949
530.0,0.6848
531.0,0.6948
532.0,0.6708
533.0,0.6512
534.0,0.6706
535.0,0.6855
536.0,0.692
537.0,0.6649
538.0,0.6767
539.0,0.671
540.0,0.6433
541.0,0.6469
542.0,0.6669
543.0,0.6604
544.0,0.6714
545.0,0.6694
546.0,0.6719
547.0,0.672
548.0,0.6641
549.0,0.6663
550.0,0.6743
551.0,0.6662
552.0,0.6708
553.0,0.6587
554.0,0.6744
555.0,0.6756
556.0,0.6668
557.0,0.6459
558.0,0.6407
559.0,0.6284
560.0,0.6361
561.0,0.6441
562.0,0.6391
563.0,0.6561
564.0,0.6379
565.0,0.6321
566.0,0.6226
567.0,0.634
568.0,0.6273
569.0,0.6105
570.0,0.6106
571.0,0.6074
572.0,0.6207
573.0,0.6271
574.0,0.6248
575.0,0.6127
576.0,0.6072
577.0,0.614
578.0,0.6053
579.0,0.6086
580.0,0.6216
581.0,0.6258
582.0,0.6386
583.0,0.6409
584.0,0.647
585.0,0.6315
586.0,0.6186
587.0,0.6315
588.0,0.6138
589.0,0.5391
590.0,0.5641
591.0,0.5998
592.0,0.5906
593.0,0.6014
594.0,0.5964
595.0,0.5799
596.0,0.6066
597.0,0.5991
598.0,0.5987
599.0,0.5998
600.0,0.6017
601.0,0.5975
602.0,0.5935
603.0,0.6037
604.0,0.6139
605.0,0.611
606.0,0.6089
607.0,0.6154
608.0,0.609
609.0,0.6104
610.0,0.6064
611.0,0.6098
612.0,0.6083
613.0,0.6009
614.0,0.593
615.0,0.6063
616.0,0.5866
617.0,0.5856
618.0,0.6084
619.0,0.6023
620.0,0.6061
621.0,0.6064
622.0,0.599
623.0,0.5896
624.0,0.5797
625.0,0.5785
626.0,0.5869
627.0,0.5926
628.0,0.5428
629.0,0.5749
630.0,0.5613
631.0,0.5776
632.0,0.5713
633.0,0.5902
634.0,0.5857
635.0,0.5954
636.0,0.5882
637.0,0.5983
638.0,0.6049
639.0,0.5986
640.0,0.5933
641.0,0.5933
642.0,0.591
643.0,0.599
644.0,0.5975
645.0,0.5982
646.0,0.583
647.0,0.5732
648.0,0.5736
649.0,0.5622
650.0,0.5687
651.0,0.5941
652.0,0.5654
653.0,0.5864
654.0,0.5802
655.0,0.5566
656.0,0.4947
657.0,0.5082
658.0,0.5707
659.0,0.5753
660.0,0.578
661.0,0.5821
662.0,0.5826
663.0,0.5714
664.0,0.5792
665.0,0.5805
666.0,0.5813
667.0,0.5812
668.0,0.5819
669.0,0.5912
670.0,0.5888
671.0,0.5889
672.0,0.584
673.0,0.5929
674.0,0.5909
675.0,0.5857
676.0,0.5899
677.0,0.5842
678.0,0.586
679.0,0.5766
680.0,0.5813
681.0,0.5776
682.0,0.5769
683.0,0.5758
684.0,0.5729
685.0,0.578
686.0,0.5744
687.0,0.3361
688.0,0.4145
689.0,0.4167
690.0,0.4442
691.0,0.4759
692.0,0.5001
693.0,0.4954
694.0,0.4918
695.0,0.5178
696.0,0.5187
697.0,0.5573
698.0,0.5484
699.0,0.5308
700.0,0.5242
701.0,0.5172
702.0,0.5226
703.0,0.5238
704.0,0.5433
705.0,0.5441
706.0,0.5447
707.0,0.5455
708.0,0.5466
709.0,0.5491
710.0,0.5482
711.0,0.5481
712.0,0.5473
713.0,0.541
714.0,0.5432
715.0,0.5243
716.0,0.5241
717.0,0.438
718.0,0.4004
719.0,0.3654
720.0,0.3812
721.0,0.4305
722.0,0.503
723.0,0.463
724.0,0.4108
725.0,0.402
726.0,0.4216
727.0,0.4318
728.0,0.4003
729.0,0.4211
730.0,0.4448
731.0,0.4242
732.0,0.4599
733.0,0.4926
734.0,0.506
735.0,0.4947
736.0,0.4939
737.0,0.4958
738.0,0.5077
739.0,0.4977
740.0,0.512
741.0,0.5077
742.0,0.5089
743.0,0.5221
744.0,0.5211
745.0,0.5216
746.0,0.524
747.0,0.5253
748.0,0.5242
749.0,0.5183
750.0,0.518
751.0,0.5128
752.0,0.515
753.0,0.5177
754.0,0.5189
755.0,0.5159
756.0,0.5157
757.0,0.5165
758.0,0.5099
759.0,0.4969
760.0,0.04756
761.0,0.02051
762.0,0.2075
763.0,0.08291
764.0,0.1419
765.0,0.2074
766.0,0.2751
767.0,0.3697
768.0,0.4459
769.0,0.4597
770.0,0.4805
771.0,0.4866
772.0,0.4883
773.0,0.492
774.0,0.4897
775.0,0.4861
776.0,0.4921
777.0,0.4856
778.0,0.4827
779.0,0.4831
780.0,0.4804
781.0,0.4809
782.0,0.484
783.0,0.4756
784.0,0.478
785.0,0.4743
786.0,0.4793
787.0,0.4689
788.0,0.4621
789.0,0.4618
790.0,0.4466
791.0,0.4533
792.0,0.4504
793.0,0.4428
794.0,0.4533
795.0,0.4602
796.0,0.4421
797.0,0.4424
798.0,0.4592
799.0,0.4555
800.0,0.4467
801.0,0.4444
802.0,0.4431
803.0,0.4392
804.0,0.4403
805.0,0.44
806.0,0.4543
807.0,0.4484
808.0,0.449
809.0,0.4391
810.0,0.4345
811.0,0.4329
812.0,0.4179
813.0,0.4079
814.0,0.3507
815.0,0.349
816.0,0.3239
817.0,0.3305
818.0,0.3163
819.0,0.3606
820.0,0.337
821.0,0.4039
822.0,0.3908
823.0,0.2503
824.0,0.3757
825.0,0.3968
826.0,0.3785
827.0,0.4028
828.0,0.332
829.0,0.3769
830.0,0.3711
831.0,0.3726
832.0,0.3594
833.0,0.3869
834.0,0.3702
835.0,0.4135
836.0,0.3913
837.0,0.4149
838.0,0.3998
839.0,0.4091
840.0,0.4187
841.0,0.4118
842.0,0.4142
843.0,0.4155
844.0,0.4089
845.0,0.4238
846.0,0.4222
847.0,0.4148
848.0,0.4116
849.0,0.3998
850.0,0.3832
851.0,0.4049
852.0,0.4024
853.0,0.388
854.0,0.3345
855.0,0.3682
856.0,0.4021
857.0,0.4115
858.0,0.4082
859.0,0.4089
860.0,0.4099
861.0,0.4076
862.0,0.4141
863.0,0.4239
864.0,0.4027
865.0,0.3993
866.0,0.359
867.0,0.3747
868.0,0.4077
869.0,0.3993
870.0,0.4107
871.0,0.4051
872.0,0.4037
873.0,0.4029
874.0,0.3981
875.0,0.39
876.0,0.394
877.0,0.3981
878.0,0.4023
879.0,0.3961
880.0,0.3876
881.0,0.3815
882.0,0.3896
883.0,0.3912
884.0,0.3892
885.0,0.3922
886.0,0.3725
887.0,0.3774
888.0,0.3824
889.0,0.3879
890.0,0.3832
891.0,0.3833
892.0,0.3704
893.0,0.357
894.0,0.3405
895.0,0.3169
896.0,0.297
897.0,0.2492
898.0,0.275
899.0,0.2024
900.0,0.2854
901.0,0.2121
902.0,0.2581
903.0,0.2575
904.0,0.3379
905.0,0.3244
906.0,0.302
907.0,0.236
908.0,0.2423
909.0,0.2665
910.0,0.2282
911.0,0.2484
912.0,0.2607
913.0,0.2312
914.0,0.2307
915.0,0.2499
916.0,0.2101
917.0,0.2742
918.0,0.215
919.0,0.2816
920.0,0.2894
921.0,0.3011
922.0,0.2637
923.0,0.2914
924.0,0.2692
925.0,0.2636
926.0,0.2658
927.0,0.303
928.0,0.2067
929.0,0.1846
930.0,0.1386
931.0,0.1318
932.0,0.08832
933.0,0.06872
934.0,0.03145
935.0,0.0728
936.0,0.04136
937.0,0.04162
938.0,0.0527
939.0,0.1276
940.0,0.1583
941.0,0.1132
942.0,0.1346
943.0,0.08372
944.0,0.0929
945.0,0.1181
946.0,0.05366
947.0,0.1169
948.0,0.08512
949.0,0.1628
950.0,0.03615
951.0,0.1613
952.0,0.07846
953.0,0.1068
954.0,0.1371
955.0,0.1086
956.0,0.1105
957.0,0.07798
958.0,0.1642
959.0,0.1231
960.0,0.1379
961.0,0.1607
962.0,0.1515
963.0,0.1797
964.0,0.1631
965.0,0.1793
966.0,0.1783
967.0,0.1769
968.0,0.2564
969.0,0.2654
970.0,0.2417
971.0,0.2851
972.0,0.271
973.0,0.2274
974.0,0.2149
975.0,0.2262
976.0,0.21
977.0,0.2486
978.0,0.2321
979.0,0.2457
980.0,0.2296
981.0,0.2837
982.0,0.2681
983.0,0.2557
984.0,0.2961
985.0,0.2671
986.0,0.3036
987.0,0.2949
988.0,0.2946
989.0,0.3042
990.0,0.2927
991.0,0.3048
992.0,0.3069
993.0,0.2973
994.0,0.307
995.0,0.307
996.0,0.3053
997.0,0.3059
998.0,0.3043
999.0,0.3033
1000.0,0.3006
1001.0,0.305
1002.0,0.294
1003.0,0.2995
1004.0,0.2915
1005.0,0.2817
1006.0,0.2923
1007.0,0.2987
1008.0,0.2966
1009.0,0.2945
1010.0,0.293
1011.0,0.2973
1012.0,0.2942
1013.0,0.2967
1014.0,0.2946
1015.0,0.2926
1016.0,0.2912
1017.0,0.2918
1018.0,0.2911
1019.0,0.2839
1020.0,0.2894
1021.0,0.2892
1022.0,0.2865
1023.0,0.2895
1024.0,0.2847
1025.0,0.2897
1026.0,0.2882
1027.0,0.2876
1028.0,0.2869
1029.0,0.2834
1030.0,0.2857
1031.0,0.2844
1032.0,0.2837
1033.0,0.2794
1034.0,0.2794
1035.0,0.2803
1036.0,0.2816
1037.0,0.2771
1038.0,0.2783
1039.0,0.2781
1040.0,0.2769
1041.0,0.2779
1042.0,0.276
1043.0,0.2751
1044.0,0.276
1045.0,0.2722
1046.0,0.2691
1047.0,0.2714
1048.0,0.2729
1049.0,0.2718
1050.0,0.2705
1051.0,0.27
1052.0,0.2688
1053.0,0.2665
1054.0,0.267
1055.0,0.267
1056.0,0.2659
1057.0,0.2649
1058.0,0.2583
1059.0,0.2584
1060.0,0.2579
1061.0,0.2575
1062.0,0.2587
1063.0,0.256
1064.0,0.2591
1065.0,0.2568
1066.0,0.2521
1067.0,0.2552
1068.0,0.2494
1069.0,0.2419
1070.0,0.2498
1071.0,0.2546
1072.0,0.251
1073.0,0.2475
1074.0,0.2549
1075.0,0.2395
1076.0,0.2546
1077.0,0.2485
1078.0,0.2431
1079.0,0.2509
1080.0,0.2447
1081.0,0.2356
1082.0,0.2416
1083.0,0.2429
1084.0,0.2344
1085.0,0.2455
1086.0,0.2204
1087.0,0.23
1088.0,0.2422
1089.0,0.2323
1090.0,0.2257
1091.0,0.2408
1092.0,0.2407
1093.0,0.1971
1094.0,0.2193
1095.0,0.206
1096.0,0.1952
1097.0,0.2352
1098.0,0.1912
1099.0,0.2006
1100.0,0.1836
1101.0,0.1868
1102.0,0.1766
1103.0,0.1735
1104.0,0.1739
1105.0,0.1954
1106.0,0.1382
1107.0,0.1834
1108.0,0.1488
1109.0,0.1503
1110.0,0.1806
1111.0,0.1137
1112.0,0.1496
1113.0,0.08652
1114.0,0.09731
1115.0,0.08015
1116.0,0.05914
1117.0,0.01713
1118.0,0.06574
1119.0,0.02859
1120.0,0.03552
1121.0,0.0494
1122.0,0.01752
1123.0,0.03228
1124.0,0.02719
1125.0,0.03647
1126.0,0.009603
1127.0,0.04144
1128.0,0.02127
1129.0,0.02297
1130.0,0.01418
1131.0,0.08784
1132.0,0.06712
1133.0,0.03754
1134.0,0.007288
1135.0,0.002882
1136.0,0.02962
1137.0,0.0844
1138.0,0.05857
1139.0,0.0979
1140.0,0.07775
1141.0,0.05577
1142.0,0.06615
1143.0,0.09844
1144.0,0.02964
1145.0,0.03625
1146.0,0.03904
1147.0,0.01064
1148.0,0.08477
1149.0,0.06468
1150.0,0.03266
1151.0,0.05809
1152.0,0.07511
1153.0,0.07604
1154.0,0.03506
1155.0,0.102
1156.0,0.08968
1157.0,0.1046
1158.0,0.1033
1159.0,0.1139
1160.0,0.095
1161.0,0.1229
1162.0,0.123
1163.0,0.1764
1164.0,0.1476
1165.0,0.1356
1166.0,0.1375
1167.0,0.1516
1168.0,0.1524
1169.0,0.1572
1170.0,0.1739
1171.0,0.1694
1172.0,0.1744
1173.0,0.1736
1174.0,0.1167
1175.0,0.1712
1176.0,0.1923
1177.0,0.1819
1178.0,0.1311
1179.0,0.194
1180.0,0.1687
1181.0,0.1743
1182.0,0.1142
1183.0,0.1726
1184.0,0.1597
1185.0,0.1523
1186.0,0.1867
1187.0,0.1759
1188.0,0.1152
1189.0,0.1635
1190.0,0.1828
1191.0,0.1698
1192.0,0.1857
1193.0,0.1767
1194.0,0.183
1195.0,0.1705
1196.0,0.1627
1197.0,0.1842
1198.0,0.1671
1199.0,0.1368
1200.0,0.1743
1201.0,0.1662
1202.0,0.1667
1203.0,0.1646
1204.0,0.1415
1205.0,0.1721
1206.0,0.1928
1207.0,0.1656
1208.0,0.1646
1209.0,0.1683
1210.0,0.1766
1211.0,0.1662
1212.0,0.1615
1213.0,0.1852
1214.0,0.1665
1215.0,0.1629
1216.0,0.1848
1217.0,0.1789
1218.0,0.1832
1219.0,0.1804
1220.0,0.1835
1221.0,0.1859
1222.0,0.1806
1223.0,0.1785
1224.0,0.1764
1225.0,0.1846
1226.0,0.1866
1227.0,0.1694
1228.0,0.1881
1229.0,0.1866
1230.0,0.1829
1231.0,0.1899
1232.0,0.1887
1233.0,0.1799
1234.0,0.1902
1235.0,0.1887
1236.0,0.1903
1237.0,0.1867
1238.0,0.1897
1239.0,0.1872
1240.0,0.1881
1241.0,0.1866
1242.0,0.1867
1243.0,0.1852
1244.0,0.1864
1245.0,0.1873
1246.0,0.1862
1247.0,0.1853
1248.0,0.1849
1249.0,0.1857
1250.0,0.1844
1251.0,0.1817
1252.0,0.1822
1253.0,0.1799
1254.0,0.1775
1255.0,0.1818
1256.0,0.1752
1257.0,0.1739
1258.0,0.1784
1259.0,0.1696
1260.0,0.1708
1261.0,0.1583
1262.0,0.1521
1263.0,0.1523
1264.0,0.1371
1265.0,0.1514
1266.0,0.1436
1267.0,0.1475
1268.0,0.1377
1269.0,0.07208
1270.0,0.1465
1271.0,0.1581
1272.0,0.159
1273.0,0.157
1274.0,0.1579
1275.0,0.1607
1276.0,0.1628
1277.0,0.1646
1278.0,0.169
1279.0,0.1673
1280.0,0.1653
1281.0,0.1583
1282.0,0.1534
1283.0,0.165
1284.0,0.1688
1285.0,0.1701
1286.0,0.1728
1287.0,0.1693
1288.0,0.1695
1289.0,0.1623
1290.0,0.1681
1291.0,0.1708
1292.0,0.1572
1293.0,0.1667
1294.0,0.1654
1295.0,0.1635
1296.0,0.1541
1297.0,0.1442
1298.0,0.1585
1299.0,0.1672
1300.0,0.1362
1301.0,0.1414
1302.0,0.1581
1303.0,0.135
1304.0,0.1102
1305.0,0.1545
1306.0,0.1541
1307.0,0.1144
1308.0,0.136
1309.0,0.1522
1310.0,0.1118
1311.0,0.1293
1312.0,0.125
1313.0,0.1216
1314.0,0.1071
1315.0,0.1045
1316.0,0.1263
1317.0,0.119
1318.0,0.1314
1319.0,0.09682
1320.0,0.09506
1321.0,0.1128
1322.0,0.1128
1323.0,0.0801
1324.0,0.09517
1325.0,0.124
1326.0,0.1034
1327.0,0.09779
1328.0,0.0827
1329.0,0.05794
1330.0,0.07755
1331.0,0.04219
1332.0,0.04501
1333.0,0.06358
1334.0,0.05661
1335.0,0.07954
1336.0,0.06031
1337.0,0.05237
1338.0,0.05648
1339.0,0.0569
1340.0,0.05669
1341.0,0.0522
1342.0,0.05518
1343.0,0.03191
1344.0,0.01959
1345.0,0.02814
1346.0,0.01104
1347.0,0.01072
1348.0,0.0004149
1349.0,0.001703
1350.0,0.001945
1351.0,0.0002937
1352.0,4.423e-05
1353.0,1.367e-06
1354.0,6.835e-06
1355.0,1.787e-08
1356.0,6.534e-07
1357.0,9.98e-07
1358.0,2.214e-08
1359.0,1.211e-09
1360.0,7.467e-09
1361.0,1.933e-12
1362.0,3.731e-15
1363.0,7.136e-09
1364.0,3.091e-09
1365.0,9.552e-16
1366.0,3.854e-08
1367.0,2.002e-08
1368.0,6.23e-18
1369.0,1.133e-09
1370.0,3.984e-10
1371.0,1.623e-11
1372.0,1.126e-08
1373.0,3.931e-07
1374.0,2.727e-06
1375.0,4.582e-06
1376.0,6.312e-06
1377.0,2.676e-06
1378.0,2.925e-05
1379.0,1.133e-06
1380.0,1.227e-06
1381.0,2.692e-08
1382.0,9.096e-09
1383.0,1.081e-10
1384.0,1.095e-09
1385.0,1.34e-08
1386.0,6.207e-09
1387.0,2.066e-06
1388.0,4.694e-08
1389.0,1.154e-05
1390.0,9.58e-06
1391.0,6.083e-06
1392.0,3.707e-07
1393.0,2.402e-06
1394.0,6.058e-07
1395.0,3.123e-09
1396.0,3.185e-12
1397.0,8.195e-07
1398.0,3.082e-05
1399.0,2.013e-05
1400.0,9.907e-13
1401.0,6.48e-12
1402.0,0.0001056
1403.0,0.0001167
1404.0,3.343e-05
1405.0,1.112e-09
1406.0,6.981e-05
1407.0,7.871e-06
1408.0,5.969e-05
1409.0,1.423e-05
1410.0,1.522e-05
1411.0,0.0001055
1412.0,0.0001679
1413.0,0.002656
1414.0,1.265e-05
1415.0,5.234e-06
1416.0,0.006
1417.0,0.001369
1418.0,0.001406
1419.0,0.0002042
1420.0,0.0008499
1421.0,0.000979
1422.0,0.007881
1423.0,0.00143
1424.0,0.00284
1425.0,0.003868
1426.0,0.005054
1427.0,0.0107
1428.0,0.0003691
1429.0,0.007204
1430.0,0.01442
1431.0,0.01639
1432.0,0.0002848
1433.0,0.009719
1434.0,0.004605
1435.0,0.00352
