interpolation:linear
wavelength,value
280.0,2.7189999999999995e-22
280.5,8.946e-21
281.0,4.797e-20
281.5,4.008e-19
282.0,6.564e-19
282.5,1.628e-18
283.0,5.152e-18
283.5,8.389e-18
284.0,1.382e-16
284.5,4.033e-16
285.0,6.633e-16
285.5,3.314e-15
286.0,1.337e-14
286.5,6.024e-14
287.0,1.729e-13
287.5,6.671e-13
288.0,2.315e-12
288.5,6.963e-12
289.0,1.848e-11
289.5,5.566e-11
290.0,1.543e-10
290.5,3.144e-10
291.0,6.747e-10
291.5,1.937e-09
292.0,3.902e-09
292.5,5.485e-09
293.0,1.179e-08
293.5,2.879e-08
294.0,4.509e-08
294.5,6.181e-08
295.0,1.049e-07
295.5,1.76e-07
296.0,3.426e-07
296.5,4.839e-07
297.0,6.606e-07
297.5,1.8e-06
298.0,2.881e-06
298.5,2.937e-06
299.0,6.568e-06
299.5,1.122e-05
300.0,1.256e-05
300.5,1.855e-05
301.0,3.475e-05
301.5,5.725e-05
302.0,4.982e-05
302.5,0.0001005
303.0,0.0001891
303.5,0.0002471
304.0,0.0002407
304.5,0.0003956
305.0,0.0006896
305.5,0.0008645
306.0,0.0008669
306.5,0.001146
307.0,0.001943
307.5,0.002947
308.0,0.003181
308.5,0.004014
309.0,0.004071
309.5,0.00516
310.0,0.005433
310.5,0.009006
311.0,0.01174
311.5,0.01152
312.0,0.0125
312.5,0.01606
313.0,0.01791
313.5,0.01695
314.0,0.02259
314.5,0.0218
315.0,0.02909
315.5,0.02336
316.0,0.02185
316.5,0.03327
317.0,0.04127
317.5,0.04224
318.0,0.0343
318.5,0.04596
319.0,0.05668
319.5,0.04344
320.0,0.05201
320.5,0.07035
321.0,0.06716
321.5,0.06485
322.0,0.06416
322.5,0.05604
323.0,0.0586
323.5,0.07538
324.0,0.0887
324.5,0.0883
325.0,0.0744
325.5,0.09952
326.0,0.1232
326.5,0.1265
327.0,0.125
327.5,0.1193
328.0,0.1027
328.5,0.1125
329.0,0.1392
329.5,0.1596
330.0,0.1598
330.5,0.1247
331.0,0.1261
331.5,0.1306
332.0,0.145
332.5,0.1452
333.0,0.1438
333.5,0.1276
334.0,0.1304
334.5,0.154
335.0,0.1466
335.5,0.1718
336.0,0.119
336.5,0.138
337.0,0.1122
337.5,0.1392
338.0,0.1385
338.5,0.1607
339.0,0.1593
339.5,0.1532
340.0,0.1793
340.5,0.162
341.0,0.1586
341.5,0.146
342.0,0.1746
342.5,0.1636
343.0,0.1797
343.5,0.1692
344.0,0.1247
344.5,0.1262
345.0,0.1675
345.5,0.1714
346.0,0.1458
346.5,0.1653
347.0,0.1774
347.5,0.1434
348.0,0.1638
348.5,0.164
349.0,0.1523
349.5,0.1509
350.0,0.1868
350.5,0.1971
351.0,0.176
351.5,0.1709
352.0,0.1839
352.5,0.1437
353.0,0.1812
353.5,0.194
354.0,0.2015
354.5,0.2045
355.0,0.2038
355.5,0.1843
356.0,0.193
356.5,0.1649
357.0,0.1363
357.5,0.1669
358.0,0.1324
358.5,0.1132
359.0,0.1584
359.5,0.2018
360.0,0.214
360.5,0.1712
361.0,0.1562
361.5,0.1801
362.0,0.156
362.5,0.2161
363.0,0.1943
363.5,0.1791
364.0,0.2193
364.5,0.1875
365.0,0.1911
365.5,0.24
366.0,0.2546
366.5,0.2394
367.0,0.2333
367.5,0.2423
368.0,0.2122
368.5,0.2142
369.0,0.2315
369.5,0.247
370.0,0.2635
370.5,0.2047
371.0,0.2189
371.5,0.274
372.0,0.1819
372.5,0.2183
373.0,0.2223
373.5,0.1447
374.0,0.2104
374.5,0.1744
375.0,0.1697
375.5,0.2534
376.0,0.2102
376.5,0.2179
377.0,0.2309
377.5,0.2704
378.0,0.2932
378.5,0.2773
379.0,0.2289
379.5,0.2092
380.0,0.2176
380.5,0.2638
381.0,0.2646
381.5,0.21
382.0,0.1867
382.5,0.1593
383.0,0.1476
383.5,0.1423
384.0,0.1571
384.5,0.2312
385.0,0.2295
385.5,0.2139
386.0,0.1833
386.5,0.241
387.0,0.2004
387.5,0.2252
388.0,0.2081
388.5,0.2059
389.0,0.2224
389.5,0.2695
390.0,0.2707
390.5,0.2493
391.0,0.2937
391.5,0.2997
392.0,0.2526
392.5,0.2263
393.0,0.126
393.5,0.0917
394.0,0.1867
394.5,0.2376
395.0,0.2901
395.5,0.2948
396.0,0.2558
396.5,0.1497
397.0,0.1124
397.5,0.2287
398.0,0.3204
398.5,0.3314
399.0,0.3593
399.5,0.3583
400.0,0.3722
401.0,0.3754
402.0,0.3967
403.0,0.3774
404.0,0.3721
405.0,0.3724
406.0,0.367
407.0,0.3616
408.0,0.376
409.0,0.4029
410.0,0.3525
411.0,0.3823
412.0,0.4114
413.0,0.4014
414.0,0.4069
415.0,0.4086
416.0,0.4164
417.0,0.4065
418.0,0.3994
419.0,0.4052
420.0,0.4038
421.0,0.4229
422.0,0.4023
423.0,0.3934
424.0,0.4163
425.0,0.4161
426.0,0.406
427.0,0.3988
428.0,0.3888
429.0,0.3689
430.0,0.3233
431.0,0.3205
432.0,0.4144
433.0,0.4171
434.0,0.3875
435.0,0.4049
436.0,0.4569
437.0,0.4515
438.0,0.4116
439.0,0.4253
440.0,0.4393
441.0,0.4558
442.0,0.4892
443.0,0.4764
444.0,0.4874
445.0,0.4769
446.0,0.456
447.0,0.4938
448.0,0.5012
449.0,0.5042
450.0,0.5188
451.0,0.5384
452.0,0.5192
453.0,0.4887
454.0,0.5109
455.0,0.5142
456.0,0.5267
457.0,0.5357
458.0,0.5171
459.0,0.5147
460.0,0.5159
461.0,0.5281
462.0,0.5328
463.0,0.5292
464.0,0.5214
465.0,0.5157
466.0,0.5213
467.0,0.5116
468.0,0.5178
469.0,0.5206
470.0,0.5039
471.0,0.5035
472.0,0.5306
473.0,0.5238
474.0,0.5241
475.0,0.528
476.0,0.5114
477.0,0.5123
478.0,0.5268
479.0,0.5241
480.0,0.5256
481.0,0.5361
482.0,0.5397
483.0,0.5341
484.0,0.5237
485.0,0.4995
486.0,0.4373
487.0,0.4588
488.0,0.5034
489.0,0.5047
490.0,0.5315
491.0,0.5227
492.0,0.4937
493.0,0.51
494.0,0.5152
495.0,0.5198
496.0,0.523
497.0,0.531
498.0,0.5061
499.0,0.5123
500.0,0.4969
501.0,0.4873
502.0,0.4794
503.0,0.4979
504.0,0.4823
505.0,0.5019
506.0,0.5181
507.0,0.4932
508.0,0.4788
509.0,0.493
510.0,0.491
511.0,0.5048
512.0,0.5106
513.0,0.4834
514.0,0.4804
515.0,0.4756
516.0,0.4743
517.0,0.4217
518.0,0.4432
519.0,0.4648
520.0,0.4816
521.0,0.4861
522.0,0.4863
523.0,0.4773
524.0,0.4939
525.0,0.4989
526.0,0.4763
527.0,0.4482
528.0,0.4735
529.0,0.4987
530.0,0.4912
531.0,0.4982
532.0,0.481
533.0,0.4669
534.0,0.481
535.0,0.4918
536.0,0.4967
537.0,0.4774
538.0,0.4861
539.0,0.4819
540.0,0.4619
541.0,0.464
542.0,0.4781
543.0,0.4738
544.0,0.4812
545.0,0.4799
546.0,0.4813
547.0,0.4817
548.0,0.4763
549.0,0.478
550.0,0.4837
551.0,0.478
552.0,0.4813
553.0,0.4726
554.0,0.4838
555.0,0.4845
556.0,0.4781
557.0,0.4629
558.0,0.459
559.0,0.4499
560.0,0.4552
561.0,0.4606
562.0,0.4567
563.0,0.4685
564.0,0.4552
565.0,0.4508
566.0,0.4438
567.0,0.4516
568.0,0.4459
569.0,0.4323
570.0,0.4326
571.0,0.4308
572.0,0.4391
573.0,0.4434
574.0,0.4415
575.0,0.4325
576.0,0.4287
577.0,0.4336
578.0,0.428
579.0,0.4311
580.0,0.4416
581.0,0.4455
582.0,0.4555
583.0,0.4578
584.0,0.4626
585.0,0.4518
586.0,0.4426
587.0,0.4514
588.0,0.4366
589.0,0.3795
590.0,0.3974
591.0,0.425
592.0,0.417
593.0,0.4266
594.0,0.4222
595.0,0.409
596.0,0.4312
597.0,0.425
598.0,0.4257
599.0,0.4269
600.0,0.4291
601.0,0.4267
602.0,0.424
603.0,0.4316
604.0,0.4391
605.0,0.4372
606.0,0.436
607.0,0.4411
608.0,0.4369
609.0,0.4382
610.0,0.4358
611.0,0.4385
612.0,0.4376
613.0,0.4324
614.0,0.4271
615.0,0.437
616.0,0.423
617.0,0.4225
618.0,0.4391
619.0,0.4349
620.0,0.4376
621.0,0.4376
622.0,0.432
623.0,0.425
624.0,0.4182
625.0,0.4172
626.0,0.4232
627.0,0.4265
628.0,0.3813
629.0,0.4105
630.0,0.4004
631.0,0.4153
632.0,0.4114
633.0,0.4264
634.0,0.4241
635.0,0.4317
636.0,0.4271
637.0,0.435
638.0,0.4405
639.0,0.4363
640.0,0.4329
641.0,0.4332
642.0,0.432
643.0,0.4379
644.0,0.4372
645.0,0.4375
646.0,0.4253
647.0,0.4154
648.0,0.416
649.0,0.4073
650.0,0.4154
651.0,0.4345
652.0,0.4103
653.0,0.4291
654.0,0.4248
655.0,0.4059
656.0,0.3619
657.0,0.372
658.0,0.4189
659.0,0.4227
660.0,0.4249
661.0,0.4281
662.0,0.4278
663.0,0.4198
664.0,0.4265
665.0,0.4282
666.0,0.4291
667.0,0.4294
668.0,0.4303
669.0,0.4374
670.0,0.4358
671.0,0.436
672.0,0.4326
673.0,0.4394
674.0,0.438
675.0,0.4343
676.0,0.4376
677.0,0.4335
678.0,0.435
679.0,0.4282
680.0,0.4317
681.0,0.429
682.0,0.4285
683.0,0.4277
684.0,0.4256
685.0,0.4295
686.0,0.4266
687.0,0.2132
688.0,0.28
689.0,0.2821
690.0,0.307
691.0,0.3363
692.0,0.3595
693.0,0.3559
694.0,0.3544
695.0,0.3781
696.0,0.3792
697.0,0.4128
698.0,0.4062
699.0,0.3893
700.0,0.3842
701.0,0.3775
702.0,0.383
703.0,0.3843
704.0,0.401
705.0,0.4015
706.0,0.4028
707.0,0.4038
708.0,0.4045
709.0,0.408
710.0,0.4064
711.0,0.4069
712.0,0.4071
713.0,0.4017
714.0,0.4036
715.0,0.3879
716.0,0.3874
717.0,0.3101
718.0,0.2826
719.0,0.2569
720.0,0.2664
721.0,0.3088
722.0,0.3692
723.0,0.3358
724.0,0.2929
725.0,0.2851
726.0,0.2992
727.0,0.31
728.0,0.2831
729.0,0.3027
730.0,0.3184
731.0,0.3029
732.0,0.3335
733.0,0.3618
734.0,0.3732
735.0,0.364
736.0,0.3631
737.0,0.3646
738.0,0.3772
739.0,0.3699
740.0,0.3816
741.0,0.379
742.0,0.3807
743.0,0.3908
744.0,0.3905
745.0,0.3912
746.0,0.393
747.0,0.3941
748.0,0.3933
749.0,0.3889
750.0,0.3887
751.0,0.3848
752.0,0.3866
753.0,0.3886
754.0,0.3895
755.0,0.3873
756.0,0.3872
757.0,0.3877
758.0,0.3828
759.0,0.3705
760.0,0.01848
761.0,0.006574
762.0,0.1205
763.0,0.03714
764.0,0.0737
765.0,0.1203
766.0,0.1753
767.0,0.2545
768.0,0.3241
769.0,0.3382
770.0,0.3581
771.0,0.3648
772.0,0.3668
773.0,0.3697
774.0,0.3681
775.0,0.3655
776.0,0.3701
777.0,0.3652
778.0,0.363
779.0,0.3633
780.0,0.3613
781.0,0.3618
782.0,0.3641
783.0,0.3579
784.0,0.3597
785.0,0.3568
786.0,0.3604
787.0,0.3507
788.0,0.3448
789.0,0.3445
790.0,0.3308
791.0,0.3382
792.0,0.3364
793.0,0.3305
794.0,0.3408
795.0,0.3453
796.0,0.3283
797.0,0.3282
798.0,0.3441
799.0,0.3407
800.0,0.3333
801.0,0.3307
802.0,0.3297
803.0,0.3264
804.0,0.3276
805.0,0.3284
806.0,0.3409
807.0,0.3361
808.0,0.3366
809.0,0.3279
810.0,0.3237
811.0,0.3207
812.0,0.3071
813.0,0.2989
814.0,0.251
815.0,0.2503
816.0,0.2314
817.0,0.2364
818.0,0.2248
819.0,0.2616
820.0,0.2427
821.0,0.299
822.0,0.288
823.0,0.1731
824.0,0.2738
825.0,0.2938
826.0,0.2777
827.0,0.2981
828.0,0.2382
829.0,0.277
830.0,0.2723
831.0,0.2733
832.0,0.2623
833.0,0.2857
834.0,0.2711
835.0,0.3085
836.0,0.288
837.0,0.3096
838.0,0.2962
839.0,0.3055
840.0,0.3132
841.0,0.3072
842.0,0.3103
843.0,0.3127
844.0,0.307
845.0,0.3191
846.0,0.3182
847.0,0.313
848.0,0.31
849.0,0.3011
850.0,0.2886
851.0,0.3044
852.0,0.3028
853.0,0.2924
854.0,0.2517
855.0,0.2777
856.0,0.3029
857.0,0.3105
858.0,0.3078
859.0,0.3086
860.0,0.3095
861.0,0.3077
862.0,0.3128
863.0,0.3201
864.0,0.3042
865.0,0.3017
866.0,0.2712
867.0,0.2831
868.0,0.3081
869.0,0.3018
870.0,0.3104
871.0,0.3062
872.0,0.3051
873.0,0.3045
874.0,0.3009
875.0,0.2948
876.0,0.2978
877.0,0.3009
878.0,0.3039
879.0,0.2993
880.0,0.2929
881.0,0.288
882.0,0.294
883.0,0.2955
884.0,0.2939
885.0,0.2961
886.0,0.2801
887.0,0.2847
888.0,0.288
889.0,0.293
890.0,0.2884
891.0,0.289
892.0,0.2778
893.0,0.2664
894.0,0.2511
895.0,0.2299
896.0,0.2147
897.0,0.1761
898.0,0.1962
899.0,0.14
900.0,0.2063
901.0,0.1466
902.0,0.1845
903.0,0.1818
904.0,0.2491
905.0,0.2379
906.0,0.2203
907.0,0.1653
908.0,0.1714
909.0,0.1908
910.0,0.1586
911.0,0.1768
912.0,0.1854
913.0,0.1605
914.0,0.1612
915.0,0.1739
916.0,0.1458
917.0,0.1949
918.0,0.1487
919.0,0.2021
920.0,0.2117
921.0,0.2197
922.0,0.189
923.0,0.2131
924.0,0.1916
925.0,0.188
926.0,0.1887
927.0,0.2186
928.0,0.1393
929.0,0.1217
930.0,0.08713
931.0,0.0827
932.0,0.05134
933.0,0.03833
934.0,0.01452
935.0,0.04187
936.0,0.02168
937.0,0.02179
938.0,0.02834
939.0,0.07991
940.0,0.1024
941.0,0.06944
942.0,0.08443
943.0,0.04966
944.0,0.05826
945.0,0.07333
946.0,0.02969
947.0,0.07154
948.0,0.05183
949.0,0.1036
950.0,0.01865
951.0,0.103
952.0,0.0458
953.0,0.06545
954.0,0.08755
955.0,0.06699
956.0,0.07248
957.0,0.04535
958.0,0.1109
959.0,0.07876
960.0,0.0883
961.0,0.1066
962.0,0.1004
963.0,0.1224
964.0,0.1102
965.0,0.1217
966.0,0.1209
967.0,0.1194
968.0,0.1866
969.0,0.1909
970.0,0.173
971.0,0.2097
972.0,0.198
973.0,0.1606
974.0,0.1515
975.0,0.1611
976.0,0.1463
977.0,0.1804
978.0,0.1655
979.0,0.1766
980.0,0.1644
981.0,0.2088
982.0,0.1953
983.0,0.1851
984.0,0.2207
985.0,0.1943
986.0,0.2281
987.0,0.2197
988.0,0.2196
989.0,0.2297
990.0,0.2181
991.0,0.2299
992.0,0.2316
993.0,0.2226
994.0,0.232
995.0,0.2323
996.0,0.2307
997.0,0.2313
998.0,0.23
999.0,0.2293
1000.0,0.2268
1001.0,0.2307
1002.0,0.2203
1003.0,0.2263
1004.0,0.2197
1005.0,0.2131
1006.0,0.2208
1007.0,0.2258
1008.0,0.2239
1009.0,0.2219
1010.0,0.2206
1011.0,0.2248
1012.0,0.2221
1013.0,0.2244
1014.0,0.2229
1015.0,0.2213
1016.0,0.2202
1017.0,0.2206
1018.0,0.2202
1019.0,0.214
1020.0,0.2189
1021.0,0.2188
1022.0,0.2166
1023.0,0.2188
1024.0,0.2144
1025.0,0.2191
1026.0,0.2178
1027.0,0.2174
1028.0,0.2168
1029.0,0.2141
1030.0,0.2161
1031.0,0.215
1032.0,0.2146
1033.0,0.2113
1034.0,0.2114
1035.0,0.212
1036.0,0.2129
1037.0,0.2096
1038.0,0.2104
1039.0,0.2102
1040.0,0.2093
1041.0,0.21
1042.0,0.2085
1043.0,0.2078
1044.0,0.2084
1045.0,0.2055
1046.0,0.2031
1047.0,0.2049
1048.0,0.2059
1049.0,0.205
1050.0,0.2039
1051.0,0.2035
1052.0,0.2025
1053.0,0.2007
1054.0,0.2009
1055.0,0.2008
1056.0,0.1998
1057.0,0.199
1058.0,0.1939
1059.0,0.1938
1060.0,0.1934
1061.0,0.1931
1062.0,0.1938
1063.0,0.1917
1064.0,0.1941
1065.0,0.1921
1066.0,0.1887
1067.0,0.191
1068.0,0.1864
1069.0,0.181
1070.0,0.1868
1071.0,0.191
1072.0,0.1878
1073.0,0.1853
1074.0,0.1916
1075.0,0.1782
1076.0,0.1913
1077.0,0.1857
1078.0,0.1811
1079.0,0.1889
1080.0,0.1829
1081.0,0.175
1082.0,0.1812
1083.0,0.1826
1084.0,0.1739
1085.0,0.1836
1086.0,0.1624
1087.0,0.171
1088.0,0.1818
1089.0,0.1724
1090.0,0.1668
1091.0,0.1803
1092.0,0.1805
1093.0,0.1432
1094.0,0.1639
1095.0,0.1497
1096.0,0.1407
1097.0,0.1764
1098.0,0.137
1099.0,0.1444
1100.0,0.1305
1101.0,0.1335
1102.0,0.1248
1103.0,0.1217
1104.0,0.1221
1105.0,0.1402
1106.0,0.09222
1107.0,0.1304
1108.0,0.1016
1109.0,0.1033
1110.0,0.1273
1111.0,0.07461
1112.0,0.1031
1113.0,0.05449
1114.0,0.06137
1115.0,0.05002
1116.0,0.0343
1117.0,0.007981
1118.0,0.03862
1119.0,0.0148
1120.0,0.01799
1121.0,0.02607
1122.0,0.007747
1123.0,0.01644
1124.0,0.01381
1125.0,0.0191
1126.0,0.003744
1127.0,0.02184
1128.0,0.009594
1129.0,0.01049
1130.0,0.006304
1131.0,0.05167
1132.0,0.03844
1133.0,0.01895
1134.0,0.002811
1135.0,0.001188
1136.0,0.01408
1137.0,0.04858
1138.0,0.03319
1139.0,0.06215
1140.0,0.04702
1141.0,0.03171
1142.0,0.03869
1143.0,0.06058
1144.0,0.01583
1145.0,0.01825
1146.0,0.01963
1147.0,0.004115
1148.0,0.05163
1149.0,0.03777
1150.0,0.01816
1151.0,0.03294
1152.0,0.0447
1153.0,0.04695
1154.0,0.01803
1155.0,0.06467
1156.0,0.05558
1157.0,0.0679
1158.0,0.06695
1159.0,0.075
1160.0,0.06184
1161.0,0.08361
1162.0,0.08323
1163.0,0.1264
1164.0,0.1035
1165.0,0.09259
1166.0,0.09612
1167.0,0.1071
1168.0,0.1071
1169.0,0.111
1170.0,0.125
1171.0,0.1218
1172.0,0.1269
1173.0,0.1248
1174.0,0.07945
1175.0,0.1246
1176.0,0.143
1177.0,0.1331
1178.0,0.09255
1179.0,0.1442
1180.0,0.1222
1181.0,0.1264
1182.0,0.07877
1183.0,0.1257
1184.0,0.115
1185.0,0.1083
1186.0,0.1373
1187.0,0.1279
1188.0,0.07854
1189.0,0.1187
1190.0,0.1348
1191.0,0.1222
1192.0,0.1372
1193.0,0.1296
1194.0,0.1348
1195.0,0.1236
1196.0,0.1169
1197.0,0.1365
1198.0,0.1231
1199.0,0.09676
1200.0,0.1278
1201.0,0.1203
1202.0,0.1221
1203.0,0.1196
1204.0,0.1013
1205.0,0.1271
1206.0,0.1444
1207.0,0.1206
1208.0,0.1212
1209.0,0.1241
1210.0,0.1311
1211.0,0.122
1212.0,0.1161
1213.0,0.1374
1214.0,0.1205
1215.0,0.1178
1216.0,0.1375
1217.0,0.1323
1218.0,0.1362
1219.0,0.1336
1220.0,0.1365
1221.0,0.1388
1222.0,0.1346
1223.0,0.1326
1224.0,0.1302
1225.0,0.1377
1226.0,0.1398
1227.0,0.1248
1228.0,0.1415
1229.0,0.1398
1230.0,0.1367
1231.0,0.1433
1232.0,0.1424
1233.0,0.1338
1234.0,0.144
1235.0,0.1425
1236.0,0.144
1237.0,0.1405
1238.0,0.1436
1239.0,0.1417
1240.0,0.1424
1241.0,0.1408
1242.0,0.1413
1243.0,0.1402
1244.0,0.1409
1245.0,0.1417
1246.0,0.1409
1247.0,0.1401
1248.0,0.1395
1249.0,0.1404
1250.0,0.1393
1251.0,0.1369
1252.0,0.1377
1253.0,0.1352
1254.0,0.1328
1255.0,0.1372
1256.0,0.1308
1257.0,0.1296
1258.0,0.134
1259.0,0.1253
1260.0,0.1265
1261.0,0.1147
1262.0,0.1089
1263.0,0.109
1264.0,0.09531
1265.0,0.1084
1266.0,0.1011
1267.0,0.1051
1268.0,0.0962
1269.0,0.0411
1270.0,0.1038
1271.0,0.1149
1272.0,0.1158
1273.0,0.114
1274.0,0.1151
1275.0,0.1176
1276.0,0.1197
1277.0,0.1217
1278.0,0.1259
1279.0,0.1246
1280.0,0.1232
1281.0,0.1184
1282.0,0.1156
1283.0,0.1242
1284.0,0.1268
1285.0,0.1279
1286.0,0.1304
1287.0,0.127
1288.0,0.1274
1289.0,0.1204
1290.0,0.1264
1291.0,0.1287
1292.0,0.1157
1293.0,0.125
1294.0,0.1239
1295.0,0.1215
1296.0,0.1129
1297.0,0.1045
1298.0,0.1175
1299.0,0.1256
1300.0,0.09831
1301.0,0.1027
1302.0,0.1172
1303.0,0.0978
1304.0,0.07628
1305.0,0.1145
1306.0,0.1136
1307.0,0.08057
1308.0,0.09922
1309.0,0.1115
1310.0,0.07838
1311.0,0.09343
1312.0,0.08992
1313.0,0.08642
1314.0,0.07476
1315.0,0.07223
1316.0,0.09055
1317.0,0.08475
1318.0,0.09522
1319.0,0.06595
1320.0,0.06553
1321.0,0.07935
1322.0,0.07853
1323.0,0.05238
1324.0,0.06504
1325.0,0.08832
1326.0,0.07161
1327.0,0.06708
1328.0,0.05548
1329.0,0.03599
1330.0,0.04987
1331.0,0.02429
1332.0,0.0267
1333.0,0.03824
1334.0,0.03631
1335.0,0.05159
1336.0,0.03735
1337.0,0.03216
1338.0,0.0344
1339.0,0.03502
1340.0,0.03582
1341.0,0.03081
1342.0,0.03292
1343.0,0.01614
1344.0,0.01027
1345.0,0.01435
1346.0,0.004371
1347.0,0.004012
1348.0,9.642e-05
1349.0,0.0004337
1350.0,0.0005265
1351.0,5.126e-05
1352.0,4.357e-06
1353.0,1.162e-07
1354.0,6.838e-07
1355.0,1.738e-09
1356.0,5.612e-08
1357.0,8.459e-08
1358.0,2.092e-09
1359.0,2.108e-10
1360.0,8.409e-10
1361.0,8.227e-13
1362.0,2.246e-15
1363.0,1.037e-09
1364.0,4.356e-10
1365.0,7.836e-16
1366.0,4.641e-09
1367.0,2.064e-09
1368.0,6.05e-18
1369.0,1.608e-10
1370.0,7.607e-11
1371.0,4.243e-12
1372.0,1.139e-09
1373.0,3.151e-08
1374.0,2.256e-07
1375.0,3.466e-07
1376.0,6.377e-07
1377.0,2.627e-07
1378.0,2.74e-06
1379.0,1.15e-07
1380.0,1.035e-07
1381.0,2.333e-09
1382.0,9.624e-10
1383.0,1.376e-11
1384.0,1.706e-10
1385.0,1.15e-09
1386.0,7.913e-10
1387.0,1.512e-07
1388.0,4.004e-09
1389.0,9.844e-07
1390.0,7.716e-07
1391.0,5.05e-07
1392.0,3.276e-08
1393.0,2.274e-07
1394.0,4.654e-08
1395.0,2.881e-10
1396.0,1.074e-12
1397.0,7.223e-08
1398.0,2.681e-06
1399.0,1.819e-06
1400.0,4.574e-13
1401.0,1.91e-12
1402.0,1.789e-05
1403.0,1.686e-05
1404.0,4.405e-06
1405.0,1.204e-10
1406.0,7.268e-06
1407.0,1.219e-06
1408.0,6.537e-06
1409.0,1.201e-06
1410.0,1.772e-06
1411.0,1.579e-05
1412.0,2.981e-05
1413.0,0.0006671
1414.0,1.562e-06
1415.0,5.793e-07
1416.0,0.002174
1417.0,0.0004004
1418.0,0.0003354
1419.0,4.645e-05
1420.0,0.0002015
1421.0,0.0002754
1422.0,0.002835
1423.0,0.0005026
1424.0,0.00108
1425.0,0.001323
1426.0,0.002015
1427.0,0.004689
1428.0,7.979e-05
1429.0,0.002846
1430.0,0.006736
