interpolation:linear
wavelength,value
280.0,4.782e-20
280.5,1.34e-18
281.0,6.819e-18
281.5,4.582e-19
282.0,2.014e-18
282.5,5.716e-18
283.0,1.907e-17
283.5,3.148e-17
284.0,4.96e-16
284.5,1.399e-15
285.0,2.706e-15
285.5,1.67e-14
286.0,7.137e-14
286.5,3.461e-13
287.0,1.032e-12
287.5,4.108e-12
288.0,1.206e-11
288.5,4.797e-11
289.0,1.615e-10
289.5,6.089e-10
290.0,1.999e-09
290.5,4.669e-09
291.0,1.169e-08
291.5,4.035e-08
292.0,1.09e-07
292.5,1.715e-07
293.0,4.255e-07
293.5,1.269e-06
294.0,2.315e-06
294.5,3.024e-06
295.0,5.902e-06
295.5,1.424e-05
296.0,2.706e-05
296.5,3.726e-05
297.0,4.975e-05
297.5,0.0001306
298.0,0.0002019
298.5,0.0002001
299.0,0.0004346
299.5,0.0007013
300.0,0.0007595
300.5,0.001082
301.0,0.001906
301.5,0.002962
302.0,0.002503
302.5,0.004721
303.0,0.008097
303.5,0.009897
304.0,0.009106
304.5,0.01286
305.0,0.01808
305.5,0.01974
306.0,0.01876
306.5,0.02266
307.0,0.03147
307.5,0.0393
308.0,0.04109
308.5,0.04707
309.0,0.04537
309.5,0.04976
310.0,0.049
310.5,0.07858
311.0,0.09702
311.5,0.09297
312.0,0.08966
312.5,0.1065
313.0,0.1141
313.5,0.112
314.0,0.1361
314.5,0.1161
315.0,0.1515
315.5,0.1291
316.0,0.1092
316.5,0.1526
317.0,0.1896
317.5,0.1988
318.0,0.1522
318.5,0.1824
319.0,0.2126
319.5,0.1783
320.0,0.2164
320.5,0.2611
321.0,0.225
321.5,0.215
322.0,0.2373
322.5,0.206
323.0,0.2005
323.5,0.2411
324.0,0.2804
324.5,0.2873
325.0,0.2512
325.5,0.3171
326.0,0.3855
326.5,0.3813
327.0,0.3817
327.5,0.3707
328.0,0.3355
328.5,0.3456
329.0,0.4074
329.5,0.4602
330.0,0.466
330.5,0.3774
331.0,0.3861
331.5,0.3888
332.0,0.4146
332.5,0.4076
333.0,0.4078
333.5,0.3726
334.0,0.3823
334.5,0.4363
335.0,0.4074
335.5,0.4757
336.0,0.3291
336.5,0.3866
337.0,0.3186
337.5,0.3968
338.0,0.384
338.5,0.443
339.0,0.4383
339.5,0.4216
340.0,0.4956
340.5,0.4463
341.0,0.4353
341.5,0.3995
342.0,0.4774
342.5,0.4465
343.0,0.4911
343.5,0.4625
344.0,0.3417
344.5,0.3452
345.0,0.4566
345.5,0.466
346.0,0.3959
346.5,0.4482
347.0,0.4812
347.5,0.3891
348.0,0.4434
348.5,0.4431
349.0,0.411
349.5,0.4069
350.0,0.5032
350.5,0.5307
351.0,0.4741
351.5,0.4609
352.0,0.4949
352.5,0.3861
353.0,0.4862
353.5,0.5198
354.0,0.5396
354.5,0.5472
355.0,0.5454
355.5,0.4926
356.0,0.5153
356.5,0.44
357.0,0.3636
357.5,0.4451
358.0,0.3527
358.5,0.3014
359.0,0.4216
359.5,0.5373
360.0,0.5695
360.5,0.4552
361.0,0.4149
361.5,0.4776
362.0,0.4129
362.5,0.5713
363.0,0.5131
363.5,0.4725
364.0,0.5778
364.5,0.4939
365.0,0.503
365.5,0.6313
366.0,0.6687
366.5,0.6283
367.0,0.6118
367.5,0.6349
368.0,0.5556
368.5,0.5606
369.0,0.6054
369.5,0.6452
370.0,0.6878
370.5,0.5338
371.0,0.5703
371.5,0.7135
372.0,0.4736
372.5,0.5678
373.0,0.5775
373.5,0.3757
374.0,0.546
374.5,0.4521
375.0,0.4395
375.5,0.6562
376.0,0.5439
376.5,0.5637
377.0,0.5968
377.5,0.6982
378.0,0.7568
378.5,0.7154
379.0,0.5904
379.5,0.5393
380.0,0.5608
380.5,0.6791
381.0,0.6805
381.5,0.5394
382.0,0.479
382.5,0.4083
383.0,0.378
383.5,0.364
384.0,0.4016
384.5,0.5906
385.0,0.5857
385.5,0.5454
386.0,0.4671
386.5,0.6136
387.0,0.5099
387.5,0.5727
388.0,0.5287
388.5,0.5227
389.0,0.5642
389.5,0.6833
390.0,0.6858
390.5,0.6311
391.0,0.7429
391.5,0.7577
392.0,0.6382
392.5,0.5713
393.0,0.3179
393.5,0.2311
394.0,0.4702
394.5,0.5978
395.0,0.7295
395.5,0.741
396.0,0.6425
396.5,0.3756
397.0,0.2818
397.5,0.5732
398.0,0.8027
398.5,0.8297
399.0,0.8983
399.5,0.8954
400.0,0.9298
401.0,0.9448
402.0,0.9967
403.0,0.9467
404.0,0.9321
405.0,0.9319
406.0,0.9166
407.0,0.9017
408.0,0.937
409.0,1.003
410.0,0.8762
411.0,0.9489
412.0,1.019
413.0,0.9938
414.0,1.006
415.0,1.008
416.0,1.026
417.0,1.001
418.0,0.982
419.0,0.9948
420.0,0.9904
421.0,1.036
422.0,0.9846
423.0,0.9617
424.0,1.017
425.0,1.015
426.0,0.9886
427.0,0.9701
428.0,0.945
429.0,0.8948
430.0,0.783
431.0,0.7762
432.0,1.002
433.0,1.007
434.0,0.9354
435.0,0.9769
436.0,1.1
437.0,1.085
438.0,0.9881
439.0,1.022
440.0,1.055
441.0,1.093
442.0,1.172
443.0,1.142
444.0,1.166
445.0,1.141
446.0,1.088
447.0,1.176
448.0,1.195
449.0,1.199
450.0,1.232
451.0,1.278
452.0,1.231
453.0,1.158
454.0,1.208
455.0,1.216
456.0,1.245
457.0,1.265
458.0,1.222
459.0,1.216
460.0,1.219
461.0,1.247
462.0,1.257
463.0,1.248
464.0,1.227
465.0,1.211
466.0,1.222
467.0,1.2
468.0,1.214
469.0,1.221
470.0,1.182
471.0,1.18
472.0,1.243
473.0,1.227
474.0,1.23
475.0,1.24
476.0,1.204
477.0,1.208
478.0,1.241
479.0,1.233
480.0,1.235
481.0,1.258
482.0,1.264
483.0,1.248
484.0,1.222
485.0,1.164
486.0,1.017
487.0,1.066
488.0,1.169
489.0,1.173
490.0,1.234
491.0,1.212
492.0,1.145
493.0,1.182
494.0,1.194
495.0,1.204
496.0,1.212
497.0,1.23
498.0,1.173
499.0,1.188
500.0,1.154
501.0,1.133
502.0,1.117
503.0,1.164
504.0,1.136
505.0,1.175
506.0,1.213
507.0,1.154
508.0,1.118
509.0,1.149
510.0,1.142
511.0,1.172
512.0,1.185
513.0,1.121
514.0,1.113
515.0,1.102
516.0,1.1
517.0,0.9771
518.0,1.027
519.0,1.077
520.0,1.117
521.0,1.127
522.0,1.129
523.0,1.108
524.0,1.148
525.0,1.162
526.0,1.11
527.0,1.047
528.0,1.107
529.0,1.168
530.0,1.151
531.0,1.168
532.0,1.128
533.0,1.095
534.0,1.127
535.0,1.152
536.0,1.162
537.0,1.116
538.0,1.136
539.0,1.126
540.0,1.08
541.0,1.087
542.0,1.122
543.0,1.109
544.0,1.129
545.0,1.126
546.0,1.131
547.0,1.13
548.0,1.116
549.0,1.12
550.0,1.133
551.0,1.119
552.0,1.127
553.0,1.107
554.0,1.133
555.0,1.136
556.0,1.121
557.0,1.086
558.0,1.078
559.0,1.059
560.0,1.072
561.0,1.086
562.0,1.079
563.0,1.108
564.0,1.079
565.0,1.069
566.0,1.054
567.0,1.074
568.0,1.066
569.0,1.042
570.0,1.042
571.0,1.035
572.0,1.061
573.0,1.073
574.0,1.069
575.0,1.05
576.0,1.04
577.0,1.051
578.0,1.035
579.0,1.038
580.0,1.057
581.0,1.061
582.0,1.08
583.0,1.082
584.0,1.091
585.0,1.064
586.0,1.043
587.0,1.066
588.0,1.042
589.0,0.928
590.0,0.9701
591.0,1.024
592.0,1.012
593.0,1.025
594.0,1.019
595.0,0.9956
596.0,1.031
597.0,1.021
598.0,1.017
599.0,1.018
600.0,1.018
601.0,1.009
602.0,1.002
603.0,1.018
604.0,1.035
605.0,1.03
606.0,1.025
607.0,1.035
608.0,1.023
609.0,1.024
610.0,1.017
611.0,1.022
612.0,1.019
613.0,1.006
614.0,0.9915
615.0,1.013
616.0,0.9792
617.0,0.977
618.0,1.014
619.0,1.004
620.0,1.01
621.0,1.012
622.0,1.0
623.0,0.9852
624.0,0.9681
625.0,0.9659
626.0,0.9802
627.0,0.992
628.0,0.936
629.0,0.9718
630.0,0.9497
631.0,0.968
632.0,0.9558
633.0,0.9835
634.0,0.9729
635.0,0.9876
636.0,0.9739
637.0,0.9894
638.0,0.9982
639.0,0.9866
640.0,0.9766
641.0,0.9757
642.0,0.9709
643.0,0.9839
644.0,0.9804
645.0,0.9822
646.0,0.9604
647.0,0.9516
648.0,0.9527
649.0,0.9345
650.0,0.9357
651.0,0.9755
652.0,0.9386
653.0,0.9625
654.0,0.9514
655.0,0.9179
656.0,0.8122
657.0,0.8339
658.0,0.9335
659.0,0.9397
660.0,0.9434
661.0,0.95
662.0,0.9526
663.0,0.9335
664.0,0.9436
665.0,0.9437
666.0,0.9441
667.0,0.9428
668.0,0.9429
669.0,0.9573
670.0,0.953
671.0,0.9526
672.0,0.9443
673.0,0.9584
674.0,0.9546
675.0,0.9458
676.0,0.9522
677.0,0.9426
678.0,0.9452
679.0,0.9298
680.0,0.9372
681.0,0.9309
682.0,0.9297
683.0,0.9279
684.0,0.9233
685.0,0.9311
686.0,0.9257
687.0,0.6562
688.0,0.749
689.0,0.751
690.0,0.7811
691.0,0.8146
692.0,0.8383
693.0,0.8321
694.0,0.8252
695.0,0.8543
696.0,0.8555
697.0,0.9015
698.0,0.8876
699.0,0.8705
700.0,0.8601
701.0,0.8527
702.0,0.857
703.0,0.8586
704.0,0.8836
705.0,0.8849
706.0,0.8831
707.0,0.8834
708.0,0.8854
709.0,0.8852
710.0,0.8859
711.0,0.8842
712.0,0.8808
713.0,0.8726
714.0,0.8757
715.0,0.8496
716.0,0.8506
717.0,0.753
718.0,0.6942
719.0,0.6375
720.0,0.6689
721.0,0.7289
722.0,0.8236
723.0,0.7722
724.0,0.7018
725.0,0.6927
726.0,0.7239
727.0,0.7307
728.0,0.6916
729.0,0.712
730.0,0.7533
731.0,0.7224
732.0,0.767
733.0,0.8063
734.0,0.8239
735.0,0.8077
736.0,0.8065
737.0,0.8099
738.0,0.8187
739.0,0.8027
740.0,0.8224
741.0,0.8136
742.0,0.8137
743.0,0.8342
744.0,0.8314
745.0,0.8313
746.0,0.8351
747.0,0.8368
748.0,0.835
749.0,0.8255
750.0,0.8249
751.0,0.8166
752.0,0.82
753.0,0.8241
754.0,0.826
755.0,0.8213
756.0,0.8209
757.0,0.8221
758.0,0.812
759.0,0.7976
760.0,0.1745
761.0,0.1008
762.0,0.4502
763.0,0.2502
764.0,0.3537
765.0,0.4504
766.0,0.5329
767.0,0.6527
768.0,0.7377
769.0,0.7498
770.0,0.7714
771.0,0.776
772.0,0.7771
773.0,0.7824
774.0,0.7785
775.0,0.7725
776.0,0.7818
777.0,0.7715
778.0,0.7668
779.0,0.7675
780.0,0.7631
781.0,0.7639
782.0,0.7686
783.0,0.7552
784.0,0.7588
785.0,0.7533
786.0,0.7617
787.0,0.75
788.0,0.7414
789.0,0.7414
790.0,0.724
791.0,0.728
792.0,0.7223
793.0,0.7109
794.0,0.7206
795.0,0.7334
796.0,0.7141
797.0,0.7151
798.0,0.7329
799.0,0.7288
800.0,0.7169
801.0,0.7154
802.0,0.7133
803.0,0.7082
804.0,0.7088
805.0,0.7057
806.0,0.724
807.0,0.7156
808.0,0.7161
809.0,0.7038
810.0,0.6989
811.0,0.7013
812.0,0.6834
813.0,0.6706
814.0,0.5975
815.0,0.5935
816.0,0.5535
817.0,0.5627
818.0,0.5433
819.0,0.6009
820.0,0.5685
821.0,0.6556
822.0,0.6383
823.0,0.4484
824.0,0.6228
825.0,0.6446
826.0,0.6228
827.0,0.6544
828.0,0.5629
829.0,0.6185
830.0,0.6112
831.0,0.6131
832.0,0.5958
833.0,0.6297
834.0,0.6101
835.0,0.6645
836.0,0.6396
837.0,0.6662
838.0,0.647
839.0,0.6557
840.0,0.6697
841.0,0.6609
842.0,0.6613
843.0,0.6598
844.0,0.6512
845.0,0.6724
846.0,0.6693
847.0,0.6565
848.0,0.6529
849.0,0.6344
850.0,0.6077
851.0,0.6439
852.0,0.6392
853.0,0.6148
854.0,0.5312
855.0,0.5831
856.0,0.6375
857.0,0.6514
858.0,0.6467
859.0,0.6471
860.0,0.6481
861.0,0.6446
862.0,0.6546
863.0,0.6701
864.0,0.6366
865.0,0.631
866.0,0.5673
867.0,0.5921
868.0,0.6443
869.0,0.6309
870.0,0.6488
871.0,0.64
872.0,0.6377
873.0,0.6364
874.0,0.6289
875.0,0.6161
876.0,0.6226
877.0,0.6288
878.0,0.6357
879.0,0.6259
880.0,0.6125
881.0,0.6035
882.0,0.6167
883.0,0.6184
884.0,0.6157
885.0,0.6203
886.0,0.592
887.0,0.5976
888.0,0.6068
889.0,0.6131
890.0,0.6087
891.0,0.6073
892.0,0.5908
893.0,0.5735
894.0,0.5557
895.0,0.5282
896.0,0.4989
897.0,0.4327
898.0,0.4698
899.0,0.3623
900.0,0.4785
901.0,0.3796
902.0,0.4388
903.0,0.4453
904.0,0.5515
905.0,0.5339
906.0,0.5007
907.0,0.413
908.0,0.4203
909.0,0.4524
910.0,0.4053
911.0,0.4288
912.0,0.4471
913.0,0.4115
914.0,0.4071
915.0,0.4409
916.0,0.3747
917.0,0.4698
918.0,0.3843
919.0,0.477
920.0,0.4792
921.0,0.4978
922.0,0.4487
923.0,0.4807
924.0,0.4602
925.0,0.4502
926.0,0.4552
927.0,0.5061
928.0,0.3813
929.0,0.3507
930.0,0.2798
931.0,0.2644
932.0,0.1947
933.0,0.1605
934.0,0.09278
935.0,0.1623
936.0,0.1043
937.0,0.1061
938.0,0.1294
939.0,0.2562
940.0,0.3053
941.0,0.2344
942.0,0.2689
943.0,0.1799
944.0,0.1867
945.0,0.2409
946.0,0.1268
947.0,0.2431
948.0,0.1792
949.0,0.3214
950.0,0.09566
951.0,0.3157
952.0,0.175
953.0,0.2225
954.0,0.2689
955.0,0.2246
956.0,0.216
957.0,0.1758
958.0,0.3006
959.0,0.243
960.0,0.2723
961.0,0.3024
962.0,0.2865
963.0,0.3275
964.0,0.301
965.0,0.326
966.0,0.3267
967.0,0.3256
968.0,0.4267
969.0,0.4465
970.0,0.4114
971.0,0.4667
972.0,0.4472
973.0,0.3937
974.0,0.3743
975.0,0.3868
976.0,0.3695
977.0,0.4161
978.0,0.3971
979.0,0.4146
980.0,0.3906
981.0,0.4638
982.0,0.445
983.0,0.4281
984.0,0.4761
985.0,0.4433
986.0,0.4834
987.0,0.4751
988.0,0.4742
989.0,0.4813
990.0,0.4713
991.0,0.4829
992.0,0.4856
993.0,0.4759
994.0,0.4853
995.0,0.4845
996.0,0.4826
997.0,0.4832
998.0,0.481
999.0,0.4792
1000.0,0.476
1001.0,0.4817
1002.0,0.4695
1003.0,0.4733
1004.0,0.462
1005.0,0.4447
1006.0,0.4622
1007.0,0.4719
1008.0,0.4695
1009.0,0.4672
1010.0,0.4654
1011.0,0.4695
1012.0,0.4656
1013.0,0.4683
1014.0,0.465
1015.0,0.462
1016.0,0.4599
1017.0,0.4611
1018.0,0.4593
1019.0,0.4499
1020.0,0.4569
1021.0,0.4562
1022.0,0.4528
1023.0,0.4576
1024.0,0.4521
1025.0,0.4572
1026.0,0.4553
1027.0,0.4542
1028.0,0.4533
1029.0,0.448
1030.0,0.4509
1031.0,0.4492
1032.0,0.4478
1033.0,0.4411
1034.0,0.4411
1035.0,0.4425
1036.0,0.4448
1037.0,0.4376
1038.0,0.4395
1039.0,0.4393
1040.0,0.4375
1041.0,0.4393
1042.0,0.4362
1043.0,0.4349
1044.0,0.4364
1045.0,0.4305
1046.0,0.4258
1047.0,0.4297
1048.0,0.432
1049.0,0.4305
1050.0,0.4286
1051.0,0.428
1052.0,0.4263
1053.0,0.423
1054.0,0.4239
1055.0,0.4242
1056.0,0.4228
1057.0,0.4216
1058.0,0.4112
1059.0,0.4118
1060.0,0.4112
1061.0,0.4107
1062.0,0.4129
1063.0,0.4089
1064.0,0.4137
1065.0,0.4109
1066.0,0.4027
1067.0,0.4079
1068.0,0.3991
1069.0,0.3867
1070.0,0.3999
1071.0,0.4058
1072.0,0.4014
1073.0,0.3955
1074.0,0.4053
1075.0,0.3862
1076.0,0.4051
1077.0,0.3985
1078.0,0.3912
1079.0,0.3984
1080.0,0.3923
1081.0,0.3803
1082.0,0.3854
1083.0,0.3864
1084.0,0.3796
1085.0,0.3931
1086.0,0.3605
1087.0,0.3708
1088.0,0.3862
1089.0,0.3754
1090.0,0.3679
1091.0,0.3852
1092.0,0.384
1093.0,0.3288
1094.0,0.3517
1095.0,0.3421
1096.0,0.3285
1097.0,0.375
1098.0,0.3238
1099.0,0.3372
1100.0,0.3149
1101.0,0.3184
1102.0,0.305
1103.0,0.3027
1104.0,0.303
1105.0,0.3298
1106.0,0.2578
1107.0,0.3143
1108.0,0.2698
1109.0,0.2696
1110.0,0.312
1111.0,0.2161
1112.0,0.2673
1113.0,0.1748
1114.0,0.1948
1115.0,0.1617
1116.0,0.1319
1117.0,0.05157
1118.0,0.1425
1119.0,0.07316
1120.0,0.09219
1121.0,0.1208
1122.0,0.05298
1123.0,0.08322
1124.0,0.07028
1125.0,0.09109
1126.0,0.03383
1127.0,0.1026
1128.0,0.06364
1129.0,0.06719
1130.0,0.04517
1131.0,0.1891
1132.0,0.1494
1133.0,0.09754
1134.0,0.02668
1135.0,0.009909
1136.0,0.0824
1137.0,0.1866
1138.0,0.1321
1139.0,0.1915
1140.0,0.1621
1141.0,0.1255
1142.0,0.1432
1143.0,0.2011
1144.0,0.07302
1145.0,0.094
1146.0,0.1014
1147.0,0.03789
1148.0,0.1741
1149.0,0.1407
1150.0,0.07834
1151.0,0.1311
1152.0,0.1594
1153.0,0.1538
1154.0,0.09152
1155.0,0.1999
1156.0,0.1811
1157.0,0.2015
1158.0,0.1993
1159.0,0.2135
1160.0,0.1842
1161.0,0.2235
1162.0,0.2249
1163.0,0.2979
1164.0,0.2577
1165.0,0.2452
1166.0,0.242
1167.0,0.2625
1168.0,0.2658
1169.0,0.2714
1170.0,0.2932
1171.0,0.2861
1172.0,0.2902
1173.0,0.2925
1174.0,0.2139
1175.0,0.285
1176.0,0.3108
1177.0,0.2999
1178.0,0.2291
1179.0,0.3132
1180.0,0.2823
1181.0,0.2911
1182.0,0.205
1183.0,0.286
1184.0,0.2694
1185.0,0.2612
1186.0,0.3055
1187.0,0.2923
1188.0,0.2089
1189.0,0.2726
1190.0,0.2985
1191.0,0.2857
1192.0,0.3025
1193.0,0.2906
1194.0,0.299
1195.0,0.2844
1196.0,0.2749
1197.0,0.2983
1198.0,0.2741
1199.0,0.2368
1200.0,0.2871
1201.0,0.2782
1202.0,0.2758
1203.0,0.2736
1204.0,0.2413
1205.0,0.2811
1206.0,0.3085
1207.0,0.2755
1208.0,0.27
1209.0,0.2753
1210.0,0.286
1211.0,0.2738
1212.0,0.2721
1213.0,0.2992
1214.0,0.2778
1215.0,0.2729
1216.0,0.2981
1217.0,0.291
1218.0,0.2958
1219.0,0.2925
1220.0,0.296
1221.0,0.2985
1222.0,0.2912
1223.0,0.2888
1224.0,0.2875
1225.0,0.2966
1226.0,0.2982
1227.0,0.2769
1228.0,0.2993
1229.0,0.2982
1230.0,0.2935
1231.0,0.3006
1232.0,0.2989
1233.0,0.2901
1234.0,0.3
1235.0,0.2983
1236.0,0.3003
1237.0,0.2968
1238.0,0.2993
1239.0,0.2955
1240.0,0.2965
1241.0,0.2955
1242.0,0.2945
1243.0,0.2921
1244.0,0.2943
1245.0,0.2955
1246.0,0.2938
1247.0,0.2927
1248.0,0.2927
1249.0,0.2935
1250.0,0.2918
1251.0,0.2883
1252.0,0.288
1253.0,0.2862
1254.0,0.2838
1255.0,0.2879
1256.0,0.2808
1257.0,0.2794
1258.0,0.2839
1259.0,0.2751
1260.0,0.2764
1261.0,0.2628
1262.0,0.2559
1263.0,0.2564
1264.0,0.239
1265.0,0.2547
1266.0,0.2465
1267.0,0.2499
1268.0,0.2385
1269.0,0.1583
1270.0,0.2493
1271.0,0.2616
1272.0,0.2623
1273.0,0.2597
1274.0,0.2603
1275.0,0.2637
1276.0,0.2658
1277.0,0.2672
1278.0,0.2715
1279.0,0.2692
1280.0,0.2657
1281.0,0.2532
1282.0,0.2433
1283.0,0.2622
1284.0,0.2686
1285.0,0.2703
1286.0,0.2736
1287.0,0.27
1288.0,0.2698
1289.0,0.2624
1290.0,0.2673
1291.0,0.2708
1292.0,0.2566
1293.0,0.2661
1294.0,0.2643
1295.0,0.2636
1296.0,0.2531
1297.0,0.2406
1298.0,0.2567
1299.0,0.2662
1300.0,0.2292
1301.0,0.2355
1302.0,0.2558
1303.0,0.2258
1304.0,0.1962
1305.0,0.2508
1306.0,0.251
1307.0,0.1991
1308.0,0.2255
1309.0,0.2494
1310.0,0.1955
1311.0,0.2171
1312.0,0.2118
1313.0,0.2083
1314.0,0.1877
1315.0,0.1861
1316.0,0.2142
1317.0,0.2034
1318.0,0.2195
1319.0,0.1758
1320.0,0.1694
1321.0,0.1959
1322.0,0.1985
1323.0,0.1528
1324.0,0.1724
1325.0,0.2114
1326.0,0.1836
1327.0,0.1757
1328.0,0.1526
1329.0,0.1175
1330.0,0.1515
1331.0,0.0949
1332.0,0.09682
1333.0,0.1339
1334.0,0.1119
1335.0,0.1523
1336.0,0.1222
1337.0,0.109
1338.0,0.1179
1339.0,0.1169
1340.0,0.1128
1341.0,0.1122
1342.0,0.1177
1343.0,0.08389
1344.0,0.05006
1345.0,0.07183
1346.0,0.03847
1347.0,0.03959
1348.0,0.00311
1349.0,0.01056
1350.0,0.01054
1351.0,0.003041
1352.0,0.0009839
1353.0,6.183e-05
1354.0,0.0001869
1355.0,2.294e-06
1356.0,3.072e-05
1357.0,4.65e-05
1358.0,2.672e-06
1359.0,4.595e-07
1360.0,1.366e-06
1361.0,2.978e-09
1362.0,1.097e-11
1363.0,2.009e-06
1364.0,8.556e-07
1365.0,5.5e-12
1366.0,8.078e-06
1367.0,3.166e-06
1368.0,8.65e-14
1369.0,3.265e-07
1370.0,1.835e-07
1371.0,1.234e-08
1372.0,1.745e-06
1373.0,2.839e-05
1374.0,0.0001142
1375.0,0.0002076
1376.0,0.000167
1377.0,7.916e-05
1378.0,0.0007214
1379.0,3.353e-05
1380.0,5.259e-05
1381.0,1.514e-06
1382.0,1.632e-06
1383.0,2.789e-08
1384.0,3.885e-07
1385.0,1.337e-06
1386.0,1.59e-06
1387.0,0.0001284
1388.0,2.593e-06
1389.0,0.0003733
1390.0,0.0003212
1391.0,0.0002219
1392.0,1.528e-05
1393.0,7.478e-05
1394.0,4.849e-05
1395.0,4.274e-07
1396.0,3.93e-09
1397.0,3.161e-05
1398.0,0.0008212
1399.0,0.0005204
1400.0,2.017e-09
1401.0,6.635e-09
1402.0,0.001198
1403.0,0.001559
1404.0,0.0004827
1405.0,2.33e-07
1406.0,0.00133
1407.0,0.0001139
1408.0,0.001078
1409.0,0.0004027
1410.0,0.0003031
1411.0,0.001362
1412.0,0.001748
1413.0,0.01548
1414.0,0.0002363
1415.0,0.0001195
1416.0,0.02352
1417.0,0.007738
1418.0,0.008875
1419.0,0.001408
1420.0,0.005455
1421.0,0.005924
1422.0,0.03052
1423.0,0.006081
1424.0,0.01125
1425.0,0.01677
1426.0,0.01847
1427.0,0.03268
1428.0,0.002963
1429.0,0.02501
1430.0,0.04122
1431.0,0.04493
1432.0,0.002349
1433.0,0.02906
1434.0,0.01502
1435.0,0.01583
1436.0,0.02927
1437.0,0.02242
1438.0,0.009825
1439.0,0.03924
1440.0,0.02945
1441.0,0.02305
1442.0,0.02546
1443.0,0.03106
1444.0,0.04261
1445.0,0.03407
1446.0,0.01555
1447.0,0.02446
1448.0,0.07772
1449.0,0.06817
1450.0,0.01811
1451.0,0.007441
1452.0,0.04169
