interpolation:linear
wavelength,value
280.0,1.9270000000000002e-20
280.5,5.633e-19
281.0,2.906e-18
281.5,4.143e-19
282.0,1.62e-18
282.5,4.48e-18
283.0,1.477e-17
283.5,2.43e-17
284.0,3.862e-16
284.5,1.096e-15
285.0,1.948e-15
285.5,1.092e-14
286.0,4.526e-14
286.5,2.086e-13
287.0,6.025e-13
287.5,2.314e-12
288.0,6.586e-12
288.5,2.512e-11
289.0,8.092e-11
289.5,2.902e-10
290.0,9.127e-10
290.5,2.054e-09
291.0,4.924e-09
291.5,1.612e-08
292.0,4.379e-08
292.5,6.945e-08
293.0,1.746e-07
293.5,5.315e-07
294.0,9.838e-07
294.5,1.308e-06
295.0,2.612e-06
295.5,6.753e-06
296.0,1.315e-05
296.5,1.856e-05
297.0,2.53e-05
297.5,6.853e-05
298.0,0.0001089
298.5,0.0001102
299.0,0.0002446
299.5,0.0004098
300.0,0.0004536
300.5,0.0006615
301.0,0.001211
301.5,0.001956
302.0,0.001688
302.5,0.003226
303.0,0.005627
303.5,0.006949
304.0,0.006437
304.5,0.009251
305.0,0.0133
305.5,0.01474
306.0,0.01408
306.5,0.01717
307.0,0.0243
307.5,0.03088
308.0,0.03238
308.5,0.03741
309.0,0.03631
309.5,0.04029
310.0,0.03991
310.5,0.06418
311.0,0.0796
311.5,0.07645
312.0,0.07447
312.5,0.08905
313.0,0.0957
313.5,0.09373
314.0,0.1147
314.5,0.09891
315.0,0.1293
315.5,0.1097
316.0,0.09361
316.5,0.1318
317.0,0.1637
317.5,0.1713
318.0,0.1318
318.5,0.1594
319.0,0.1867
319.5,0.1554
320.0,0.1884
320.5,0.2296
321.0,0.1995
321.5,0.1908
322.0,0.2087
322.5,0.1813
323.0,0.1776
323.5,0.2147
324.0,0.25
324.5,0.2555
325.0,0.2227
325.5,0.2825
326.0,0.344
326.5,0.3414
327.0,0.3414
327.5,0.3311
328.0,0.2984
328.5,0.3091
329.0,0.3657
329.5,0.4136
330.0,0.4185
330.5,0.338
331.0,0.3454
331.5,0.3487
332.0,0.373
332.5,0.3673
333.0,0.3672
333.5,0.3347
334.0,0.3433
334.5,0.3929
335.0,0.3674
335.5,0.4292
336.0,0.2969
336.5,0.3485
337.0,0.2869
337.5,0.3573
338.0,0.3465
338.5,0.3999
339.0,0.3957
339.5,0.3807
340.0,0.4475
340.5,0.4031
341.0,0.3932
341.5,0.3609
342.0,0.4312
342.5,0.4034
343.0,0.4438
343.5,0.4179
344.0,0.3088
344.5,0.312
345.0,0.4127
345.5,0.4213
346.0,0.358
346.5,0.4054
347.0,0.4352
347.5,0.3519
348.0,0.4011
348.5,0.4009
349.0,0.3719
349.5,0.3682
350.0,0.4554
350.5,0.4804
351.0,0.4292
351.5,0.4172
352.0,0.448
352.5,0.3496
353.0,0.4403
353.5,0.4708
354.0,0.4887
354.5,0.4957
355.0,0.4941
355.5,0.4463
356.0,0.467
356.5,0.3987
357.0,0.3295
357.5,0.4034
358.0,0.3197
358.5,0.2732
359.0,0.3821
359.5,0.4871
360.0,0.5163
360.5,0.4127
361.0,0.3762
361.5,0.4331
362.0,0.3745
362.5,0.5183
363.0,0.4656
363.5,0.4288
364.0,0.5245
364.5,0.4483
365.0,0.4566
365.5,0.5731
366.0,0.6072
366.5,0.5705
367.0,0.5556
367.5,0.5766
368.0,0.5046
368.5,0.5092
369.0,0.55
369.5,0.5862
370.0,0.6249
370.5,0.4851
371.0,0.5183
371.5,0.6485
372.0,0.4304
372.5,0.5161
373.0,0.525
373.5,0.3416
374.0,0.4964
374.5,0.4111
375.0,0.3997
375.5,0.5968
376.0,0.4947
376.5,0.5127
377.0,0.5429
377.5,0.6352
378.0,0.6886
378.5,0.6509
379.0,0.5372
379.5,0.4907
380.0,0.5103
380.5,0.6181
381.0,0.6194
381.5,0.491
382.0,0.4361
382.5,0.3717
383.0,0.3442
383.5,0.3315
384.0,0.3657
384.5,0.538
385.0,0.5335
385.5,0.4969
386.0,0.4256
386.5,0.5591
387.0,0.4646
387.5,0.5219
388.0,0.4819
388.5,0.4763
389.0,0.5142
389.5,0.6229
390.0,0.6251
390.5,0.5754
391.0,0.6773
391.5,0.6909
392.0,0.5819
392.5,0.521
393.0,0.2899
393.5,0.2108
394.0,0.4289
394.5,0.5453
395.0,0.6655
395.5,0.6761
396.0,0.5862
396.5,0.3427
397.0,0.2572
397.5,0.5231
398.0,0.7326
398.5,0.7572
399.0,0.82
399.5,0.8173
400.0,0.8488
401.0,0.862
402.0,0.9094
403.0,0.864
404.0,0.8507
405.0,0.8507
406.0,0.8369
407.0,0.8234
408.0,0.8557
409.0,0.9159
410.0,0.8003
411.0,0.8669
412.0,0.931
413.0,0.9081
414.0,0.9192
415.0,0.9216
416.0,0.9377
417.0,0.9147
418.0,0.8979
419.0,0.9097
420.0,0.9057
421.0,0.9475
422.0,0.9006
423.0,0.8798
424.0,0.9306
425.0,0.9289
426.0,0.9047
427.0,0.8879
428.0,0.8649
429.0,0.8192
430.0,0.7169
431.0,0.7106
432.0,0.9175
433.0,0.9225
434.0,0.8567
435.0,0.8947
436.0,1.008
437.0,0.9943
438.0,0.9054
439.0,0.9367
440.0,0.9665
441.0,1.001
442.0,1.074
443.0,1.046
444.0,1.069
445.0,1.046
446.0,0.9978
447.0,1.079
448.0,1.096
449.0,1.1
450.0,1.13
451.0,1.172
452.0,1.129
453.0,1.062
454.0,1.109
455.0,1.116
456.0,1.142
457.0,1.161
458.0,1.122
459.0,1.116
460.0,1.119
461.0,1.145
462.0,1.153
463.0,1.145
464.0,1.126
465.0,1.112
466.0,1.122
467.0,1.102
468.0,1.115
469.0,1.121
470.0,1.085
471.0,1.084
472.0,1.142
473.0,1.127
474.0,1.129
475.0,1.139
476.0,1.105
477.0,1.108
478.0,1.139
479.0,1.132
480.0,1.134
481.0,1.155
482.0,1.16
483.0,1.146
484.0,1.122
485.0,1.069
486.0,0.9346
487.0,0.9793
488.0,1.074
489.0,1.078
490.0,1.134
491.0,1.114
492.0,1.052
493.0,1.087
494.0,1.097
495.0,1.107
496.0,1.114
497.0,1.131
498.0,1.078
499.0,1.092
500.0,1.06
501.0,1.041
502.0,1.027
503.0,1.069
504.0,1.043
505.0,1.079
506.0,1.114
507.0,1.06
508.0,1.027
509.0,1.055
510.0,1.049
511.0,1.077
512.0,1.089
513.0,1.031
514.0,1.023
515.0,1.013
516.0,1.011
517.0,0.8981
518.0,0.9442
519.0,0.9904
520.0,1.026
521.0,1.036
522.0,1.037
523.0,1.019
524.0,1.055
525.0,1.068
526.0,1.02
527.0,0.9616
528.0,1.017
529.0,1.072
530.0,1.057
531.0,1.073
532.0,1.036
533.0,1.006
534.0,1.035
535.0,1.058
536.0,1.067
537.0,1.025
538.0,1.043
539.0,1.034
540.0,0.9918
541.0,0.9987
542.0,1.03
543.0,1.019
544.0,1.037
545.0,1.034
546.0,1.038
547.0,1.038
548.0,1.025
549.0,1.028
550.0,1.041
551.0,1.028
552.0,1.035
553.0,1.016
554.0,1.041
555.0,1.043
556.0,1.029
557.0,0.9976
558.0,0.9902
559.0,0.9719
560.0,0.9841
561.0,0.997
562.0,0.99
563.0,1.017
564.0,0.9897
565.0,0.9814
566.0,0.9671
567.0,0.9856
568.0,0.9773
569.0,0.9551
570.0,0.9547
571.0,0.9487
572.0,0.9721
573.0,0.9826
574.0,0.9797
575.0,0.9616
576.0,0.9528
577.0,0.9631
578.0,0.9483
579.0,0.9516
580.0,0.969
581.0,0.9735
582.0,0.9914
583.0,0.9935
584.0,1.002
585.0,0.9772
586.0,0.9571
587.0,0.9784
588.0,0.9559
589.0,0.8493
590.0,0.888
591.0,0.9382
592.0,0.9272
593.0,0.9398
594.0,0.9338
595.0,0.9116
596.0,0.9455
597.0,0.9358
598.0,0.9328
599.0,0.9333
600.0,0.9342
601.0,0.9262
602.0,0.9199
603.0,0.9349
604.0,0.9503
605.0,0.9453
606.0,0.9412
607.0,0.9503
608.0,0.9395
609.0,0.941
610.0,0.9341
611.0,0.9388
612.0,0.936
613.0,0.9241
614.0,0.9113
615.0,0.931
616.0,0.9002
617.0,0.8983
618.0,0.9327
619.0,0.9232
620.0,0.9291
621.0,0.9301
622.0,0.9194
623.0,0.9056
624.0,0.8899
625.0,0.8879
626.0,0.9011
627.0,0.9116
628.0,0.8565
629.0,0.8918
630.0,0.8714
631.0,0.8893
632.0,0.8784
633.0,0.9044
634.0,0.895
635.0,0.9087
636.0,0.8963
637.0,0.9108
638.0,0.9191
639.0,0.9086
640.0,0.8996
641.0,0.8988
642.0,0.8946
643.0,0.9066
644.0,0.9034
645.0,0.905
646.0,0.8845
647.0,0.8754
648.0,0.8764
649.0,0.8595
650.0,0.8619
651.0,0.8988
652.0,0.8634
653.0,0.8869
654.0,0.8768
655.0,0.8452
656.0,0.7483
657.0,0.7684
658.0,0.8606
659.0,0.8665
660.0,0.87
661.0,0.8761
662.0,0.8782
663.0,0.8607
664.0,0.8704
665.0,0.8707
666.0,0.8712
667.0,0.8702
668.0,0.8704
669.0,0.8837
670.0,0.8798
671.0,0.8795
672.0,0.8719
673.0,0.885
674.0,0.8816
675.0,0.8735
676.0,0.8794
677.0,0.8706
678.0,0.873
679.0,0.8589
680.0,0.8657
681.0,0.86
682.0,0.8589
683.0,0.8572
684.0,0.853
685.0,0.8602
686.0,0.8552
687.0,0.5901
688.0,0.6809
689.0,0.683
690.0,0.7128
691.0,0.7462
692.0,0.7701
693.0,0.7642
694.0,0.7578
695.0,0.7864
696.0,0.7875
697.0,0.8323
698.0,0.8195
699.0,0.8021
700.0,0.7925
701.0,0.7851
702.0,0.7897
703.0,0.7911
704.0,0.8151
705.0,0.8163
706.0,0.8151
707.0,0.8155
708.0,0.8173
709.0,0.8177
710.0,0.818
711.0,0.8167
712.0,0.8138
713.0,0.806
714.0,0.8089
715.0,0.7842
716.0,0.7849
717.0,0.689
718.0,0.6341
719.0,0.5817
720.0,0.6099
721.0,0.6683
722.0,0.7591
723.0,0.7095
724.0,0.6425
725.0,0.6333
726.0,0.6624
727.0,0.6699
728.0,0.6321
729.0,0.6528
730.0,0.6908
731.0,0.6618
732.0,0.7048
733.0,0.7431
734.0,0.76
735.0,0.7447
736.0,0.7437
737.0,0.7467
738.0,0.7562
739.0,0.7414
740.0,0.7601
741.0,0.7522
742.0,0.7525
743.0,0.7716
744.0,0.7691
745.0,0.7691
746.0,0.7726
747.0,0.7743
748.0,0.7726
749.0,0.7638
750.0,0.7633
751.0,0.7556
752.0,0.7588
753.0,0.7626
754.0,0.7644
755.0,0.76
756.0,0.7597
757.0,0.7608
758.0,0.7514
759.0,0.7373
760.0,0.1435
761.0,0.0795
762.0,0.3989
763.0,0.2116
764.0,0.3073
765.0,0.399
766.0,0.4798
767.0,0.5953
768.0,0.679
769.0,0.6915
770.0,0.713
771.0,0.7179
772.0,0.7191
773.0,0.7241
774.0,0.7205
775.0,0.715
776.0,0.7237
777.0,0.7141
778.0,0.7098
779.0,0.7104
780.0,0.7064
781.0,0.7071
782.0,0.7115
783.0,0.6991
784.0,0.7024
785.0,0.6973
786.0,0.705
787.0,0.6936
788.0,0.6853
789.0,0.6852
790.0,0.6682
791.0,0.6728
792.0,0.6676
793.0,0.657
794.0,0.6669
795.0,0.6785
796.0,0.6594
797.0,0.6602
798.0,0.6779
799.0,0.6739
800.0,0.6626
801.0,0.6609
802.0,0.659
803.0,0.6542
804.0,0.6549
805.0,0.6523
806.0,0.6699
807.0,0.662
808.0,0.6625
809.0,0.6506
810.0,0.6457
811.0,0.6474
812.0,0.63
813.0,0.6176
814.0,0.5472
815.0,0.5437
816.0,0.5065
817.0,0.5153
818.0,0.4969
819.0,0.5522
820.0,0.5214
821.0,0.6049
822.0,0.5883
823.0,0.4073
824.0,0.5728
825.0,0.5946
826.0,0.5734
827.0,0.6036
828.0,0.5159
829.0,0.5696
830.0,0.5626
831.0,0.5644
832.0,0.5478
833.0,0.5808
834.0,0.5616
835.0,0.6141
836.0,0.5896
837.0,0.6157
838.0,0.5973
839.0,0.6062
840.0,0.6193
841.0,0.6108
842.0,0.6116
843.0,0.6108
844.0,0.6025
845.0,0.6225
846.0,0.6197
847.0,0.608
848.0,0.6045
849.0,0.5873
850.0,0.5626
851.0,0.5959
852.0,0.5916
853.0,0.5693
854.0,0.4917
855.0,0.54
856.0,0.5902
857.0,0.6032
858.0,0.5988
859.0,0.5993
860.0,0.6003
861.0,0.597
862.0,0.6064
863.0,0.6207
864.0,0.5896
865.0,0.5845
866.0,0.5255
867.0,0.5484
868.0,0.5968
869.0,0.5844
870.0,0.601
871.0,0.5929
872.0,0.5908
873.0,0.5896
874.0,0.5825
875.0,0.5708
876.0,0.5767
877.0,0.5825
878.0,0.5889
879.0,0.5798
880.0,0.5674
881.0,0.559
882.0,0.5711
883.0,0.5728
884.0,0.5702
885.0,0.5745
886.0,0.5479
887.0,0.5534
888.0,0.5617
889.0,0.5679
890.0,0.5634
891.0,0.5623
892.0,0.5465
893.0,0.5299
894.0,0.5123
895.0,0.4854
896.0,0.4578
897.0,0.395
898.0,0.43
899.0,0.3292
900.0,0.4393
901.0,0.345
902.0,0.4021
903.0,0.4069
904.0,0.5085
905.0,0.4915
906.0,0.4604
907.0,0.3767
908.0,0.3837
909.0,0.4145
910.0,0.3687
911.0,0.3917
912.0,0.409
913.0,0.3743
914.0,0.3707
915.0,0.4017
916.0,0.3406
917.0,0.43
918.0,0.3493
919.0,0.4373
920.0,0.4406
921.0,0.4581
922.0,0.411
923.0,0.4424
924.0,0.4214
925.0,0.4122
926.0,0.4167
927.0,0.4651
928.0,0.3451
929.0,0.316
930.0,0.2498
931.0,0.2365
932.0,0.1717
933.0,0.1403
934.0,0.07848
935.0,0.143
936.0,0.09024
937.0,0.09157
938.0,0.1122
939.0,0.2291
940.0,0.2746
941.0,0.2086
942.0,0.2407
943.0,0.1593
944.0,0.1669
945.0,0.2148
946.0,0.1106
947.0,0.2161
948.0,0.159
949.0,0.2881
950.0,0.08196
951.0,0.2834
952.0,0.1539
953.0,0.1977
954.0,0.2412
955.0,0.1999
956.0,0.1933
957.0,0.1543
958.0,0.2723
959.0,0.2176
960.0,0.2439
961.0,0.2728
962.0,0.2582
963.0,0.2968
964.0,0.2722
965.0,0.2957
966.0,0.2959
967.0,0.2947
968.0,0.3921
969.0,0.4099
970.0,0.3768
971.0,0.43
972.0,0.4116
973.0,0.3597
974.0,0.3415
975.0,0.354
976.0,0.3369
977.0,0.382
978.0,0.3634
979.0,0.3803
980.0,0.3578
981.0,0.4275
982.0,0.4092
983.0,0.3931
984.0,0.4399
985.0,0.4076
986.0,0.4473
987.0,0.4389
988.0,0.4381
989.0,0.4458
990.0,0.4355
991.0,0.4471
992.0,0.4497
993.0,0.44
994.0,0.4495
995.0,0.4489
996.0,0.447
997.0,0.4476
998.0,0.4455
999.0,0.4439
1000.0,0.4408
1001.0,0.4462
1002.0,0.4342
1003.0,0.4384
1004.0,0.4277
1005.0,0.4119
1006.0,0.4281
1007.0,0.4371
1008.0,0.4348
1009.0,0.4325
1010.0,0.4307
1011.0,0.4349
1012.0,0.4312
1013.0,0.4338
1014.0,0.4308
1015.0,0.428
1016.0,0.426
1017.0,0.4271
1018.0,0.4255
1019.0,0.4165
1020.0,0.4233
1021.0,0.4227
1022.0,0.4194
1023.0,0.4239
1024.0,0.4185
1025.0,0.4235
1026.0,0.4218
1027.0,0.4208
1028.0,0.4199
1029.0,0.415
1030.0,0.4178
1031.0,0.4161
1032.0,0.4149
1033.0,0.4086
1034.0,0.4086
1035.0,0.4099
1036.0,0.4121
1037.0,0.4054
1038.0,0.4071
1039.0,0.4069
1040.0,0.4053
1041.0,0.4069
1042.0,0.4041
1043.0,0.4028
1044.0,0.4042
1045.0,0.3987
1046.0,0.3943
1047.0,0.3979
1048.0,0.4001
1049.0,0.3986
1050.0,0.3968
1051.0,0.3963
1052.0,0.3947
1053.0,0.3916
1054.0,0.3924
1055.0,0.3927
1056.0,0.3913
1057.0,0.3901
1058.0,0.3805
1059.0,0.3809
1060.0,0.3804
1061.0,0.3799
1062.0,0.3819
1063.0,0.3782
1064.0,0.3827
1065.0,0.3799
1066.0,0.3724
1067.0,0.3772
1068.0,0.369
1069.0,0.3576
1070.0,0.3698
1071.0,0.3754
1072.0,0.3712
1073.0,0.3658
1074.0,0.3751
1075.0,0.3567
1076.0,0.3748
1077.0,0.3683
1078.0,0.3614
1079.0,0.3688
1080.0,0.3626
1081.0,0.3512
1082.0,0.3565
1083.0,0.3576
1084.0,0.3504
1085.0,0.3634
1086.0,0.3321
1087.0,0.3425
1088.0,0.3572
1089.0,0.3466
1090.0,0.3392
1091.0,0.3562
1092.0,0.3552
1093.0,0.3021
1094.0,0.3251
1095.0,0.3146
1096.0,0.3015
1097.0,0.3469
1098.0,0.2969
1099.0,0.3096
1100.0,0.2882
1101.0,0.2916
1102.0,0.2788
1103.0,0.2763
1104.0,0.2766
1105.0,0.3025
1106.0,0.233
1107.0,0.2876
1108.0,0.2448
1109.0,0.245
1110.0,0.2853
1111.0,0.1947
1112.0,0.2431
1113.0,0.156
1114.0,0.1742
1115.0,0.1445
1116.0,0.1161
1117.0,0.04338
1118.0,0.126
1119.0,0.06313
1120.0,0.0795
1121.0,0.1052
1122.0,0.04475
1123.0,0.07182
1124.0,0.06063
1125.0,0.07895
1126.0,0.02797
1127.0,0.08901
1128.0,0.05378
1129.0,0.05699
1130.0,0.0377
1131.0,0.1676
1132.0,0.1317
1133.0,0.08412
1134.0,0.02188
1135.0,0.008177
1136.0,0.07041
1137.0,0.1648
1138.0,0.1162
1139.0,0.172
1140.0,0.1442
1141.0,0.1105
1142.0,0.1268
1143.0,0.1795
1144.0,0.06335
1145.0,0.08112
1146.0,0.0875
1147.0,0.03127
1148.0,0.1554
1149.0,0.1245
1150.0,0.06808
1151.0,0.1153
1152.0,0.1415
1153.0,0.1375
1154.0,0.0787
1155.0,0.1795
1156.0,0.1619
1157.0,0.1812
1158.0,0.1792
1159.0,0.1929
1160.0,0.1653
1161.0,0.2027
1162.0,0.2038
1163.0,0.2733
1164.0,0.2352
1165.0,0.2226
1166.0,0.2205
1167.0,0.2398
1168.0,0.2426
1169.0,0.2481
1170.0,0.269
1171.0,0.2624
1172.0,0.2667
1173.0,0.2684
1174.0,0.1936
1175.0,0.2619
1176.0,0.2869
1177.0,0.2761
1178.0,0.2089
1179.0,0.2892
1180.0,0.2592
1181.0,0.2674
1182.0,0.1862
1183.0,0.2631
1184.0,0.2471
1185.0,0.239
1186.0,0.2816
1187.0,0.2688
1188.0,0.1896
1189.0,0.2505
1190.0,0.2752
1191.0,0.2623
1192.0,0.2789
1193.0,0.2676
1194.0,0.2756
1195.0,0.2614
1196.0,0.2522
1197.0,0.2753
1198.0,0.2524
1199.0,0.2163
1200.0,0.2643
1201.0,0.2555
1202.0,0.2536
1203.0,0.2516
1204.0,0.2209
1205.0,0.259
1206.0,0.2852
1207.0,0.2532
1208.0,0.2487
1209.0,0.2537
1210.0,0.2639
1211.0,0.2519
1212.0,0.2497
1213.0,0.2762
1214.0,0.2553
1215.0,0.2506
1216.0,0.2753
1217.0,0.2684
1218.0,0.2731
1219.0,0.2699
1220.0,0.2733
1221.0,0.2759
1222.0,0.2689
1223.0,0.2665
1224.0,0.2651
1225.0,0.2741
1226.0,0.2757
1227.0,0.2553
1228.0,0.2769
1229.0,0.2758
1230.0,0.2712
1231.0,0.2784
1232.0,0.2767
1233.0,0.268
1234.0,0.278
1235.0,0.2763
1236.0,0.2782
1237.0,0.2747
1238.0,0.2773
1239.0,0.2738
1240.0,0.2748
1241.0,0.2736
1242.0,0.2729
1243.0,0.2707
1244.0,0.2726
1245.0,0.2738
1246.0,0.2722
1247.0,0.2712
1248.0,0.2711
1249.0,0.2718
1250.0,0.2702
1251.0,0.2669
1252.0,0.2668
1253.0,0.2649
1254.0,0.2624
1255.0,0.2666
1256.0,0.2596
1257.0,0.2582
1258.0,0.2627
1259.0,0.2539
1260.0,0.2551
1261.0,0.2417
1262.0,0.235
1263.0,0.2354
1264.0,0.2184
1265.0,0.2339
1266.0,0.2257
1267.0,0.2292
1268.0,0.2181
1269.0,0.1401
1270.0,0.2286
1271.0,0.2408
1272.0,0.2415
1273.0,0.239
1274.0,0.2397
1275.0,0.243
1276.0,0.2451
1277.0,0.2466
1278.0,0.2509
1279.0,0.2487
1280.0,0.2455
1281.0,0.2341
1282.0,0.2253
1283.0,0.2427
1284.0,0.2485
1285.0,0.2501
1286.0,0.2534
1287.0,0.2497
1288.0,0.2496
1289.0,0.2423
1290.0,0.2474
1291.0,0.2507
1292.0,0.2366
1293.0,0.2461
1294.0,0.2444
1295.0,0.2435
1296.0,0.2332
1297.0,0.2211
1298.0,0.2369
1299.0,0.2463
1300.0,0.2103
1301.0,0.2164
1302.0,0.2361
1303.0,0.2073
1304.0,0.1785
1305.0,0.2314
1306.0,0.2315
1307.0,0.1818
1308.0,0.2074
1309.0,0.2299
1310.0,0.1784
1311.0,0.1992
1312.0,0.1941
1313.0,0.1906
1314.0,0.1712
1315.0,0.1693
1316.0,0.1963
1317.0,0.1862
1318.0,0.2017
1319.0,0.1595
1320.0,0.1541
1321.0,0.1789
1322.0,0.181
1323.0,0.1377
1324.0,0.1564
1325.0,0.1936
1326.0,0.1671
1327.0,0.1596
1328.0,0.1381
1329.0,0.1049
1330.0,0.136
1331.0,0.08342
1332.0,0.08569
1333.0,0.119
1334.0,0.1001
1335.0,0.1371
1336.0,0.1091
1337.0,0.09686
1338.0,0.1048
1339.0,0.1042
1340.0,0.101
1341.0,0.09938
1342.0,0.1043
1343.0,0.07219
1344.0,0.04314
1345.0,0.06213
1346.0,0.03183
1347.0,0.03253
1348.0,0.002288
1349.0,0.008035
1350.0,0.008209
1351.0,0.002147
1352.0,0.0006283
1353.0,3.507e-05
1354.0,0.0001141
1355.0,1.107e-06
1356.0,1.725e-05
1357.0,2.622e-05
1358.0,1.301e-06
1359.0,1.885e-07
1360.0,6.256e-07
1361.0,9.396e-10
1362.0,2.925e-12
1363.0,8.827e-07
1364.0,3.689e-07
1365.0,1.206e-12
1366.0,3.72e-06
1367.0,1.489e-06
1368.0,1.283e-14
1369.0,1.39e-07
1370.0,7.274e-08
1371.0,4.445e-09
1372.0,8.194e-07
1373.0,1.507e-05
1374.0,6.576e-05
1375.0,0.0001198
1376.0,0.0001023
1377.0,4.757e-05
1378.0,0.0004527
1379.0,2.004e-05
1380.0,3.002e-05
1381.0,8.163e-07
1382.0,7.514e-07
1383.0,1.19e-08
1384.0,1.61e-07
1385.0,6.661e-07
1386.0,6.975e-07
1387.0,7.089e-05
1388.0,1.405e-06
1389.0,0.0002245
1390.0,0.0001934
1391.0,0.0001308
1392.0,8.702e-06
1393.0,4.463e-05
1394.0,2.554e-05
1395.0,2.026e-07
1396.0,1.302e-09
1397.0,1.824e-05
1398.0,0.000512
1399.0,0.0003244
1400.0,6.077e-10
1401.0,2.278e-09
1402.0,0.000831
1403.0,0.001061
1404.0,0.0003256
1405.0,1.037e-07
1406.0,0.0008696
1407.0,7.55e-05
1408.0,0.0007082
1409.0,0.0002487
1410.0,0.0001936
1411.0,0.0009302
1412.0,0.001229
1413.0,0.01195
1414.0,0.000152
1415.0,7.452e-05
1416.0,0.01911
1417.0,0.005921
1418.0,0.006765
1419.0,0.001056
1420.0,0.004144
1421.0,0.004483
1422.0,0.02491
1423.0,0.00486
1424.0,0.009079
1425.0,0.01341
1426.0,0.01511
1427.0,0.02755
1428.0,0.002163
1429.0,0.0207
1430.0,0.03506
1431.0,0.03846
1432.0,0.001706
1433.0,0.02452
1434.0,0.0125
1435.0,0.01259
1436.0,0.02416
1437.0,0.01851
1438.0,0.007854
1439.0,0.0328
1440.0,0.02457
1441.0,0.01878
1442.0,0.02082
1443.0,0.02608
1444.0,0.03612
1445.0,0.02829
1446.0,0.01273
