interpolation:linear
wavelength,value
280.0,1.359e-22
280.5,4.5120000000000004e-21
281.0,2.4280000000000002e-20
281.5,4.077e-19
282.0,5.599e-19
282.5,1.374e-18
283.0,4.335e-18
283.5,7.061e-18
284.0,1.167e-16
284.5,3.415e-16
285.0,5.79e-16
285.5,2.851e-15
286.0,1.148e-14
286.5,5.165e-14
287.0,1.484e-13
287.5,5.734e-13
288.0,2.039e-12
288.5,6.004e-12
289.0,1.574e-11
289.5,4.706e-11
290.0,1.301e-10
290.5,2.648e-10
291.0,5.679e-10
291.5,1.63e-09
292.0,3.28e-09
292.5,4.59e-09
293.0,9.816e-09
293.5,2.381e-08
294.0,3.72e-08
294.5,5.001e-08
295.0,8.458e-08
295.5,1.407e-07
296.0,2.7e-07
296.5,3.755e-07
297.0,5.053e-07
297.5,1.344e-06
298.0,2.099e-06
298.5,2.095e-06
299.0,4.581e-06
299.5,7.482e-06
300.0,8.138e-06
300.5,1.164e-05
301.0,2.059e-05
301.5,3.204e-05
302.0,2.701e-05
302.5,5.353e-05
303.0,9.783e-05
303.5,0.0001256
304.0,0.0001217
304.5,0.0001975
305.0,0.0003385
305.5,0.0004198
306.0,0.000419
306.5,0.0005498
307.0,0.0009181
307.5,0.00137
308.0,0.001474
308.5,0.001845
309.0,0.002117
309.5,0.002799
310.0,0.003003
310.5,0.005025
311.0,0.006654
311.5,0.006573
312.0,0.007375
312.5,0.009683
313.0,0.01093
313.5,0.01022
314.0,0.014
314.5,0.014
315.0,0.01879
315.5,0.01483
316.0,0.01427
316.5,0.02227
317.0,0.0276
317.5,0.02805
318.0,0.02316
318.5,0.03205
319.0,0.04017
319.5,0.02999
320.0,0.03575
320.5,0.04998
321.0,0.04916
321.5,0.0476
322.0,0.0456
322.5,0.03989
323.0,0.04258
323.5,0.05634
324.0,0.06653
324.5,0.06558
325.0,0.05424
325.5,0.07379
326.0,0.09257
326.5,0.09626
327.0,0.09463
327.5,0.08981
328.0,0.07606
328.5,0.08495
329.0,0.1067
329.5,0.123
330.0,0.1226
330.5,0.09457
331.0,0.09516
331.5,0.09944
332.0,0.1118
332.5,0.1127
333.0,0.1112
333.5,0.09773
334.0,0.09967
334.5,0.119
335.0,0.114
335.5,0.134
336.0,0.09277
336.5,0.107
337.0,0.08655
337.5,0.1071
338.0,0.1076
338.5,0.1254
339.0,0.1243
339.5,0.1196
340.0,0.1393
340.5,0.126
341.0,0.1238
341.5,0.114
342.0,0.1365
342.5,0.1279
343.0,0.1404
343.5,0.1321
344.0,0.09695
344.5,0.09844
345.0,0.1308
345.5,0.1339
346.0,0.114
346.5,0.1292
347.0,0.1386
347.5,0.112
348.0,0.1281
348.5,0.1282
349.0,0.1191
349.5,0.118
350.0,0.1461
350.5,0.1542
351.0,0.1376
351.5,0.1335
352.0,0.1437
352.5,0.1124
353.0,0.1418
353.5,0.1518
354.0,0.1577
354.5,0.16
355.0,0.1595
355.5,0.1442
356.0,0.1511
356.5,0.129
357.0,0.1066
357.5,0.1306
358.0,0.1036
358.5,0.08859
359.0,0.1239
359.5,0.1579
360.0,0.1675
360.5,0.134
361.0,0.1223
361.5,0.141
362.0,0.1221
362.5,0.1692
363.0,0.1522
363.5,0.1403
364.0,0.1718
364.5,0.1469
365.0,0.1497
365.5,0.1881
366.0,0.1995
366.5,0.1876
367.0,0.1828
367.5,0.1899
368.0,0.1663
368.5,0.1679
369.0,0.1815
369.5,0.1936
370.0,0.2066
370.5,0.1605
371.0,0.1716
371.5,0.2149
372.0,0.1427
372.5,0.1712
373.0,0.1744
373.5,0.1135
374.0,0.1651
374.5,0.1369
375.0,0.1331
375.5,0.1989
376.0,0.165
376.5,0.1711
377.0,0.1813
377.5,0.2123
378.0,0.2302
378.5,0.2177
379.0,0.1797
379.5,0.1642
380.0,0.1709
380.5,0.2072
381.0,0.2079
381.5,0.165
382.0,0.1467
382.5,0.1252
383.0,0.116
383.5,0.1119
384.0,0.1235
384.5,0.1818
385.0,0.1805
385.5,0.1682
386.0,0.1442
386.5,0.1896
387.0,0.1577
387.5,0.1772
388.0,0.1638
388.5,0.1621
389.0,0.1751
389.5,0.2122
390.0,0.2132
390.5,0.1963
391.0,0.2313
391.5,0.2361
392.0,0.199
392.5,0.1783
393.0,0.09934
393.5,0.07228
394.0,0.1472
394.5,0.1873
395.0,0.2287
395.5,0.2325
396.0,0.2017
396.5,0.1181
397.0,0.08869
397.5,0.1805
398.0,0.2529
398.5,0.2616
399.0,0.2836
399.5,0.2829
400.0,0.2939
401.0,0.2957
402.0,0.3126
403.0,0.2975
404.0,0.2933
405.0,0.2937
406.0,0.2895
407.0,0.2854
408.0,0.2967
409.0,0.3181
410.0,0.2784
411.0,0.3021
412.0,0.3251
413.0,0.3173
414.0,0.3218
415.0,0.3232
416.0,0.3295
417.0,0.3218
418.0,0.3162
419.0,0.3209
420.0,0.3199
421.0,0.3351
422.0,0.3189
423.0,0.3119
424.0,0.3301
425.0,0.33
426.0,0.3222
427.0,0.3166
428.0,0.3087
429.0,0.2931
430.0,0.2569
431.0,0.2547
432.0,0.3294
433.0,0.3317
434.0,0.3082
435.0,0.3221
436.0,0.3636
437.0,0.3595
438.0,0.3278
439.0,0.3386
440.0,0.3499
441.0,0.3632
442.0,0.3898
443.0,0.3796
444.0,0.3885
445.0,0.3802
446.0,0.3638
447.0,0.3941
448.0,0.4
449.0,0.4026
450.0,0.4144
451.0,0.4302
452.0,0.4149
453.0,0.3907
454.0,0.4086
455.0,0.4112
456.0,0.4214
457.0,0.4285
458.0,0.4136
459.0,0.4117
460.0,0.4127
461.0,0.4224
462.0,0.4263
463.0,0.4235
464.0,0.4175
465.0,0.4132
466.0,0.418
467.0,0.4102
468.0,0.4151
469.0,0.4174
470.0,0.404
471.0,0.4038
472.0,0.4255
473.0,0.42
474.0,0.4201
475.0,0.4231
476.0,0.4096
477.0,0.4101
478.0,0.4217
479.0,0.4197
480.0,0.421
481.0,0.4296
482.0,0.4327
483.0,0.4285
484.0,0.4203
485.0,0.4011
486.0,0.3514
487.0,0.3689
488.0,0.4047
489.0,0.4057
490.0,0.4274
491.0,0.4205
492.0,0.3972
493.0,0.4104
494.0,0.4147
495.0,0.4184
496.0,0.421
497.0,0.4275
498.0,0.4074
499.0,0.4122
500.0,0.3997
501.0,0.3917
502.0,0.3851
503.0,0.3995
504.0,0.3861
505.0,0.4026
506.0,0.4155
507.0,0.3956
508.0,0.3843
509.0,0.3959
510.0,0.3946
511.0,0.4059
512.0,0.4107
513.0,0.3888
514.0,0.3864
515.0,0.3826
516.0,0.3815
517.0,0.3392
518.0,0.3565
519.0,0.3739
520.0,0.3874
521.0,0.3909
522.0,0.391
523.0,0.3837
524.0,0.3968
525.0,0.4006
526.0,0.3823
527.0,0.3595
528.0,0.3797
529.0,0.3997
530.0,0.3936
531.0,0.3991
532.0,0.3852
533.0,0.374
534.0,0.3853
535.0,0.3942
536.0,0.3982
537.0,0.3828
538.0,0.3898
539.0,0.3865
540.0,0.3703
541.0,0.3717
542.0,0.3829
543.0,0.3796
544.0,0.3854
545.0,0.3843
546.0,0.3852
547.0,0.3858
548.0,0.3815
549.0,0.383
550.0,0.3876
551.0,0.383
552.0,0.3857
553.0,0.3786
554.0,0.3876
555.0,0.3881
556.0,0.3829
557.0,0.3707
558.0,0.3673
559.0,0.3599
560.0,0.364
561.0,0.3682
562.0,0.3649
563.0,0.3741
564.0,0.3633
565.0,0.3596
566.0,0.3538
567.0,0.3598
568.0,0.3548
569.0,0.343
570.0,0.3434
571.0,0.3421
572.0,0.3481
573.0,0.3513
574.0,0.3497
575.0,0.3424
576.0,0.3393
577.0,0.3433
578.0,0.3392
579.0,0.3421
580.0,0.3512
581.0,0.3549
582.0,0.3633
583.0,0.3656
584.0,0.3697
585.0,0.3612
586.0,0.3539
587.0,0.3606
588.0,0.3476
589.0,0.2999
590.0,0.3142
591.0,0.3374
592.0,0.3303
593.0,0.3389
594.0,0.335
595.0,0.3236
596.0,0.3431
597.0,0.3376
598.0,0.3388
599.0,0.34
600.0,0.3422
601.0,0.3407
602.0,0.3386
603.0,0.3449
604.0,0.351
605.0,0.3496
606.0,0.3489
607.0,0.3532
608.0,0.35
609.0,0.3513
610.0,0.3495
611.0,0.3518
612.0,0.3513
613.0,0.3473
614.0,0.3432
615.0,0.3513
616.0,0.3403
617.0,0.34
618.0,0.3535
619.0,0.3501
620.0,0.3523
621.0,0.3521
622.0,0.3475
623.0,0.3418
624.0,0.3365
625.0,0.3357
626.0,0.3404
627.0,0.3426
628.0,0.3007
629.0,0.3277
630.0,0.3194
631.0,0.3333
632.0,0.3306
633.0,0.3434
634.0,0.3422
635.0,0.3487
636.0,0.3453
637.0,0.352
638.0,0.3569
639.0,0.3537
640.0,0.3513
641.0,0.3517
642.0,0.351
643.0,0.3558
644.0,0.3556
645.0,0.3557
646.0,0.345
647.0,0.3355
648.0,0.3362
649.0,0.3288
650.0,0.3374
651.0,0.3533
652.0,0.3318
653.0,0.3491
654.0,0.3457
655.0,0.3294
656.0,0.2944
657.0,0.3027
658.0,0.3415
659.0,0.3449
660.0,0.3469
661.0,0.3496
662.0,0.3491
663.0,0.3427
664.0,0.3487
665.0,0.3505
666.0,0.3514
667.0,0.3518
668.0,0.3528
669.0,0.3588
670.0,0.3576
671.0,0.3579
672.0,0.3551
673.0,0.3608
674.0,0.3598
675.0,0.3569
676.0,0.3596
677.0,0.3564
678.0,0.3577
679.0,0.3521
680.0,0.3552
681.0,0.3529
682.0,0.3525
683.0,0.3519
684.0,0.3501
685.0,0.3535
686.0,0.351
687.0,0.1556
688.0,0.2142
689.0,0.2162
690.0,0.2389
691.0,0.2663
692.0,0.2885
693.0,0.2855
694.0,0.2853
695.0,0.3074
696.0,0.3085
697.0,0.339
698.0,0.3335
699.0,0.3174
700.0,0.3132
701.0,0.3066
702.0,0.312
703.0,0.3135
704.0,0.3284
705.0,0.3288
706.0,0.3303
707.0,0.3314
708.0,0.3319
709.0,0.3358
710.0,0.3339
711.0,0.3347
712.0,0.3353
713.0,0.3304
714.0,0.3321
715.0,0.3182
716.0,0.3176
717.0,0.2466
718.0,0.2244
719.0,0.2034
720.0,0.21
721.0,0.2478
722.0,0.3011
723.0,0.2717
724.0,0.2341
725.0,0.2271
726.0,0.2384
727.0,0.2491
728.0,0.2252
729.0,0.2435
730.0,0.255
731.0,0.2424
732.0,0.2699
733.0,0.2952
734.0,0.3055
735.0,0.2974
736.0,0.2965
737.0,0.2979
738.0,0.3104
739.0,0.3045
740.0,0.3148
741.0,0.3131
742.0,0.3149
743.0,0.3234
744.0,0.3234
745.0,0.3243
746.0,0.3258
747.0,0.3267
748.0,0.3261
749.0,0.3225
750.0,0.3224
751.0,0.3192
752.0,0.3207
753.0,0.3224
754.0,0.3231
755.0,0.3212
756.0,0.3212
757.0,0.3217
758.0,0.3175
759.0,0.3057
760.0,0.009807
761.0,0.003294
762.0,0.08222
763.0,0.02125
764.0,0.04642
765.0,0.08199
766.0,0.1282
767.0,0.1973
768.0,0.2621
769.0,0.2761
770.0,0.2954
771.0,0.3023
772.0,0.3044
773.0,0.3069
774.0,0.3057
775.0,0.3036
776.0,0.3074
777.0,0.3034
778.0,0.3015
779.0,0.3018
780.0,0.3002
781.0,0.3006
782.0,0.3026
783.0,0.2974
784.0,0.299
785.0,0.2964
786.0,0.2994
787.0,0.2901
788.0,0.2847
789.0,0.2845
790.0,0.2718
791.0,0.2794
792.0,0.2781
793.0,0.2731
794.0,0.283
795.0,0.2864
796.0,0.2701
797.0,0.2698
798.0,0.2851
799.0,0.282
800.0,0.2753
801.0,0.2726
802.0,0.2717
803.0,0.2686
804.0,0.2699
805.0,0.2713
806.0,0.2827
807.0,0.2785
808.0,0.279
809.0,0.2709
810.0,0.267
811.0,0.2638
812.0,0.2507
813.0,0.2437
814.0,0.2014
815.0,0.2012
816.0,0.1854
817.0,0.1895
818.0,0.1794
819.0,0.2116
820.0,0.1955
821.0,0.2456
822.0,0.2358
823.0,0.1355
824.0,0.2223
825.0,0.2415
826.0,0.2266
827.0,0.2449
828.0,0.1912
829.0,0.2264
830.0,0.2223
831.0,0.223
832.0,0.2132
833.0,0.2342
834.0,0.2211
835.0,0.2551
836.0,0.2356
837.0,0.2559
838.0,0.2436
839.0,0.2525
840.0,0.2591
841.0,0.2536
842.0,0.257
843.0,0.2599
844.0,0.2547
845.0,0.2654
846.0,0.2648
847.0,0.2607
848.0,0.2578
849.0,0.2505
850.0,0.2401
851.0,0.2528
852.0,0.2517
853.0,0.2434
854.0,0.2092
855.0,0.2312
856.0,0.2521
857.0,0.2586
858.0,0.2563
859.0,0.2571
860.0,0.258
861.0,0.2565
862.0,0.2607
863.0,0.2669
864.0,0.2536
865.0,0.2515
866.0,0.2262
867.0,0.2361
868.0,0.2569
869.0,0.2517
870.0,0.2589
871.0,0.2553
872.0,0.2545
873.0,0.254
874.0,0.251
875.0,0.2459
876.0,0.2483
877.0,0.251
878.0,0.2534
879.0,0.2496
880.0,0.2443
881.0,0.24
882.0,0.2449
883.0,0.2463
884.0,0.2449
885.0,0.2467
886.0,0.2328
887.0,0.2371
888.0,0.2397
889.0,0.2443
890.0,0.2398
891.0,0.2406
892.0,0.2304
893.0,0.2203
894.0,0.2057
895.0,0.1862
896.0,0.1734
897.0,0.14
898.0,0.1569
899.0,0.1096
900.0,0.1665
901.0,0.1148
902.0,0.1475
903.0,0.1442
904.0,0.2039
905.0,0.1941
906.0,0.1791
907.0,0.1304
908.0,0.1363
909.0,0.153
910.0,0.1247
911.0,0.1415
912.0,0.148
913.0,0.1259
914.0,0.1272
915.0,0.1366
916.0,0.1145
917.0,0.1555
918.0,0.1164
919.0,0.1622
920.0,0.1726
921.0,0.1786
922.0,0.1518
923.0,0.1736
924.0,0.153
925.0,0.1503
926.0,0.1504
927.0,0.176
928.0,0.1069
929.0,0.092
930.0,0.06347
931.0,0.05992
932.0,0.03513
933.0,0.02546
934.0,0.008394
935.0,0.02837
936.0,0.01374
937.0,0.01385
938.0,0.01834
939.0,0.05781
940.0,0.07599
941.0,0.04951
942.0,0.06107
943.0,0.03448
944.0,0.04219
945.0,0.05281
946.0,0.01961
947.0,0.05099
948.0,0.03682
949.0,0.07609
950.0,0.0118
951.0,0.07562
952.0,0.0316
953.0,0.04674
954.0,0.0643
955.0,0.04808
956.0,0.05485
957.0,0.03129
958.0,0.08502
959.0,0.05811
960.0,0.06522
961.0,0.08075
962.0,0.07616
963.0,0.0946
964.0,0.0848
965.0,0.09375
966.0,0.09327
967.0,0.09172
968.0,0.1515
969.0,0.1534
970.0,0.1387
971.0,0.1715
972.0,0.161
973.0,0.1274
974.0,0.1202
975.0,0.1286
976.0,0.1148
977.0,0.1462
978.0,0.1324
979.0,0.142
980.0,0.1319
981.0,0.1708
982.0,0.1585
983.0,0.1497
984.0,0.1821
985.0,0.1576
986.0,0.1893
987.0,0.1815
988.0,0.1815
989.0,0.1914
990.0,0.1803
991.0,0.1915
992.0,0.193
993.0,0.1845
994.0,0.1935
995.0,0.1939
996.0,0.1924
997.0,0.193
998.0,0.1918
999.0,0.1913
1000.0,0.1889
1001.0,0.1925
1002.0,0.1826
1003.0,0.1888
1004.0,0.1829
1005.0,0.1779
1006.0,0.1841
1007.0,0.1884
1008.0,0.1866
1009.0,0.1847
1010.0,0.1834
1011.0,0.1875
1012.0,0.1851
1013.0,0.1873
1014.0,0.186
1015.0,0.1847
1016.0,0.1837
1017.0,0.184
1018.0,0.1839
1019.0,0.1782
1020.0,0.1826
1021.0,0.1827
1022.0,0.1806
1023.0,0.1825
1024.0,0.1783
1025.0,0.1829
1026.0,0.1817
1027.0,0.1814
1028.0,0.1808
1029.0,0.1785
1030.0,0.1804
1031.0,0.1794
1032.0,0.1791
1033.0,0.1764
1034.0,0.1764
1035.0,0.177
1036.0,0.1777
1037.0,0.1749
1038.0,0.1756
1039.0,0.1754
1040.0,0.1746
1041.0,0.1751
1042.0,0.1739
1043.0,0.1733
1044.0,0.1737
1045.0,0.1713
1046.0,0.1693
1047.0,0.1707
1048.0,0.1715
1049.0,0.1707
1050.0,0.1697
1051.0,0.1693
1052.0,0.1685
1053.0,0.1669
1054.0,0.167
1055.0,0.1668
1056.0,0.1659
1057.0,0.1652
1058.0,0.1609
1059.0,0.1608
1060.0,0.1604
1061.0,0.16
1062.0,0.1606
1063.0,0.1588
1064.0,0.1607
1065.0,0.1589
1066.0,0.1563
1067.0,0.1581
1068.0,0.1542
1069.0,0.1498
1070.0,0.1545
1071.0,0.1584
1072.0,0.1554
1073.0,0.1534
1074.0,0.1592
1075.0,0.1469
1076.0,0.1588
1077.0,0.1536
1078.0,0.1495
1079.0,0.1571
1080.0,0.1513
1081.0,0.1441
1082.0,0.1502
1083.0,0.1517
1084.0,0.143
1085.0,0.1519
1086.0,0.1331
1087.0,0.141
1088.0,0.1509
1089.0,0.1419
1090.0,0.1369
1091.0,0.1493
1092.0,0.1496
1093.0,0.1162
1094.0,0.1355
1095.0,0.1213
1096.0,0.1134
1097.0,0.1462
1098.0,0.1099
1099.0,0.1161
1100.0,0.1041
1101.0,0.1069
1102.0,0.09916
1103.0,0.09616
1104.0,0.09662
1105.0,0.1125
1106.0,0.07031
1107.0,0.104
1108.0,0.0788
1109.0,0.08028
1110.0,0.1008
1111.0,0.05598
1112.0,0.08022
1113.0,0.03974
1114.0,0.04472
1115.0,0.03607
1116.0,0.02345
1117.0,0.004685
1118.0,0.02656
1119.0,0.009266
1120.0,0.01104
1121.0,0.01646
1122.0,0.004267
1123.0,0.01012
1124.0,0.008483
1125.0,0.01203
1126.0,0.001878
1127.0,0.01381
1128.0,0.005393
1129.0,0.005942
1130.0,0.003573
1131.0,0.03555
1132.0,0.02589
1133.0,0.0116
1134.0,0.001408
1135.0,0.0006276
1136.0,0.008225
1137.0,0.03297
1138.0,0.02217
1139.0,0.04527
1140.0,0.03303
1141.0,0.02124
1142.0,0.02647
1143.0,0.0432
1144.0,0.01015
1145.0,0.01111
1146.0,0.01195
1147.0,0.002051
1148.0,0.03641
1149.0,0.02582
1150.0,0.01209
1151.0,0.02203
1152.0,0.031
1153.0,0.03348
1154.0,0.01129
1155.0,0.0471
1156.0,0.03979
1157.0,0.05057
1158.0,0.04978
1159.0,0.05624
1160.0,0.04629
1161.0,0.06454
1162.0,0.06397
1163.0,0.1012
1164.0,0.0816
1165.0,0.07176
1166.0,0.07575
1167.0,0.08497
1168.0,0.08483
1169.0,0.08811
1170.0,0.1005
1171.0,0.09792
1172.0,0.103
1173.0,0.1004
1174.0,0.0616
1175.0,0.1011
1176.0,0.1178
1177.0,0.1085
1178.0,0.07363
1179.0,0.1187
1180.0,0.09886
1181.0,0.1022
1182.0,0.06146
1183.0,0.1021
1184.0,0.09249
1185.0,0.08635
1186.0,0.1121
1187.0,0.1036
1188.0,0.06068
1189.0,0.09611
1190.0,0.1104
1191.0,0.0983
1192.0,0.1126
1193.0,0.1057
1194.0,0.1104
1195.0,0.09997
1196.0,0.09396
1197.0,0.1121
1198.0,0.1008
1199.0,0.07692
1200.0,0.1043
1201.0,0.09723
1202.0,0.0997
1203.0,0.09686
1204.0,0.08123
1205.0,0.1044
1206.0,0.1196
1207.0,0.09802
1208.0,0.0992
1209.0,0.1016
1210.0,0.108
1211.0,0.09977
1212.0,0.09331
1213.0,0.1131
1214.0,0.0974
1215.0,0.09515
1216.0,0.1133
1217.0,0.1087
1218.0,0.1122
1219.0,0.1098
1220.0,0.1126
1221.0,0.1148
1222.0,0.1111
1223.0,0.1093
1224.0,0.1066
1225.0,0.1137
1226.0,0.1159
1227.0,0.1021
1228.0,0.1175
1229.0,0.116
1230.0,0.1131
1231.0,0.1194
1232.0,0.1186
1233.0,0.1103
1234.0,0.1203
1235.0,0.1189
1236.0,0.1203
1237.0,0.1169
1238.0,0.1199
1239.0,0.1183
1240.0,0.119
1241.0,0.1173
1242.0,0.118
1243.0,0.1171
1244.0,0.1176
1245.0,0.1183
1246.0,0.1177
1247.0,0.1169
1248.0,0.1163
1249.0,0.1171
1250.0,0.1161
1251.0,0.1139
1252.0,0.1148
1253.0,0.1122
1254.0,0.1099
1255.0,0.1142
1256.0,0.1081
1257.0,0.1069
1258.0,0.1112
1259.0,0.1027
1260.0,0.1038
1261.0,0.09255
1262.0,0.08702
1263.0,0.08705
1264.0,0.07436
1265.0,0.08659
1266.0,0.07972
1267.0,0.08362
1268.0,0.07538
1269.0,0.02742
1270.0,0.08233
1271.0,0.09296
1272.0,0.09381
1273.0,0.0922
1274.0,0.09333
1275.0,0.09565
1276.0,0.09767
1277.0,0.09977
1278.0,0.1038
1279.0,0.1028
1280.0,0.1016
1281.0,0.09799
1282.0,0.09613
1283.0,0.1032
1284.0,0.1053
1285.0,0.1063
1286.0,0.1087
1287.0,0.1053
1288.0,0.1058
1289.0,0.09904
1290.0,0.1051
1291.0,0.1072
1292.0,0.0946
1293.0,0.1037
1294.0,0.1027
1295.0,0.1001
1296.0,0.09197
1297.0,0.08454
1298.0,0.09655
1299.0,0.1043
1300.0,0.07937
1301.0,0.08323
1302.0,0.09645
1303.0,0.07912
1304.0,0.05974
1305.0,0.09406
1306.0,0.09303
1307.0,0.06386
1308.0,0.08062
1309.0,0.0908
1310.0,0.06183
1311.0,0.07541
1312.0,0.07243
1313.0,0.06887
1314.0,0.05875
1315.0,0.05638
1316.0,0.07268
1317.0,0.06762
1318.0,0.07695
1319.0,0.05096
1320.0,0.05101
1321.0,0.06278
1322.0,0.0616
1323.0,0.0392
1324.0,0.05041
1325.0,0.07043
1326.0,0.056
1327.0,0.05206
1328.0,0.04229
1329.0,0.02586
1330.0,0.03692
1331.0,0.01652
1332.0,0.01851
1333.0,0.02682
1334.0,0.02684
1335.0,0.03827
1336.0,0.02673
1337.0,0.023
1338.0,0.02441
1339.0,0.02499
1340.0,0.02607
1341.0,0.02125
1342.0,0.02293
1343.0,0.009973
1344.0,0.006506
1345.0,0.008812
1346.0,0.002222
1347.0,0.001947
1348.0,3.509e-05
1349.0,0.0001628
1350.0,0.0002007
1351.0,1.59e-05
1352.0,1.435e-06
1353.0,5.641e-08
1354.0,2.45e-07
1355.0,1.387e-09
1356.0,2.739e-08
1357.0,4.14e-08
1358.0,1.632e-09
1359.0,2.022e-10
1360.0,7.348e-10
1361.0,8.166e-13
1362.0,2.234e-15
1363.0,9.827e-10
1364.0,4.061e-10
1365.0,7.799e-16
1366.0,4.264e-09
1367.0,1.751e-09
1368.0,6.022e-18
1369.0,1.497e-10
1370.0,7.358e-11
1371.0,4.169e-12
1372.0,9.514e-10
1373.0,1.992e-08
1374.0,1.026e-07
1375.0,1.752e-07
1376.0,2.182e-07
1377.0,9.44e-08
1378.0,9.153e-07
1379.0,4.098e-08
1380.0,4.644e-08
1381.0,1.172e-09
1382.0,8.312e-10
1383.0,1.24e-11
1384.0,1.62e-10
1385.0,8.012e-10
1386.0,7.295e-10
1387.0,9.22e-08
1388.0,1.986e-09
1389.0,3.775e-07
1390.0,3.089e-07
1391.0,2.07e-07
1392.0,1.375e-08
1393.0,8.219e-08
1394.0,3.108e-08
1395.0,2.241e-10
1396.0,1.063e-12
1397.0,2.919e-08
1398.0,9.186e-07
1399.0,6.058e-07
1400.0,4.545e-13
1401.0,1.886e-12
1402.0,5.5e-06
1403.0,4.865e-06
1404.0,1.226e-06
1405.0,1.049e-10
1406.0,2.092e-06
1407.0,3.791e-07
1408.0,1.85e-06
1409.0,4.195e-07
1410.0,5.305e-07
1411.0,4.598e-06
1412.0,9.247e-06
1413.0,0.0002394
1414.0,4.646e-07
1415.0,1.795e-07
1416.0,0.00103
1417.0,0.0001687
1418.0,0.0001167
1419.0,1.577e-05
1420.0,6.994e-05
1421.0,0.0001138
1422.0,0.001335
1423.0,0.0002353
