interpolation:linear
wavelength,value
280.0,1.008e-21
280.5,3.245e-20
281.0,1.727e-19
281.5,5.257e-19
282.0,9.384e-19
282.5,2.331e-18
283.0,7.344e-18
283.5,1.193e-17
284.0,1.931e-16
284.5,5.588e-16
285.0,1.09e-15
285.5,5.265e-15
286.0,2.105e-14
286.5,9.323e-14
287.0,2.648e-13
287.5,1.008e-12
288.0,3.127e-12
288.5,9.752e-12
289.0,2.646e-11
289.5,8.09e-11
290.0,2.261e-10
290.5,4.629e-10
291.0,9.97e-10
291.5,2.868e-09
292.0,5.991e-09
292.5,8.604e-09
293.0,1.897e-08
293.5,4.777e-08
294.0,7.64e-08
294.5,1.007e-07
295.0,1.738e-07
295.5,3.911e-07
296.0,7.054e-07
296.5,1.019e-06
297.0,1.421e-06
297.5,4.023e-06
298.0,6.694e-06
298.5,7.061e-06
299.0,1.639e-05
299.5,3.014e-05
300.0,3.537e-05
300.5,5.51e-05
301.0,0.0001139
301.5,0.0002098
302.0,0.0001956
302.5,0.000393
303.0,0.0007335
303.5,0.0009489
304.0,0.000911
304.5,0.001437
305.0,0.002354
305.5,0.002831
306.0,0.002793
306.5,0.003588
307.0,0.005701
307.5,0.008093
308.0,0.008641
308.5,0.01054
309.0,0.0106
309.5,0.01262
310.0,0.01292
310.5,0.02112
311.0,0.02692
311.5,0.02616
312.0,0.02702
312.5,0.0336
313.0,0.03686
313.5,0.03544
314.0,0.04546
314.5,0.04168
315.0,0.05512
315.5,0.04538
316.0,0.04073
316.5,0.05986
317.0,0.0743
317.5,0.07684
318.0,0.0609
318.5,0.07792
319.0,0.09387
319.5,0.07473
320.0,0.09
320.5,0.1161
321.0,0.1062
321.5,0.1021
322.0,0.1058
322.5,0.09219
323.0,0.09357
323.5,0.1169
324.0,0.1369
324.5,0.138
325.0,0.1182
325.5,0.1544
326.0,0.1894
326.5,0.1915
327.0,0.1903
327.5,0.1831
328.0,0.1611
328.5,0.1719
329.0,0.2083
329.5,0.2373
330.0,0.2388
330.5,0.1895
331.0,0.1925
331.5,0.197
332.0,0.215
332.5,0.2137
333.0,0.2126
333.5,0.1911
334.0,0.1956
334.5,0.2276
335.0,0.215
335.5,0.2513
336.0,0.1739
336.5,0.2032
337.0,0.1662
337.5,0.2066
338.0,0.2031
338.5,0.2348
339.0,0.2325
339.5,0.2237
340.0,0.2628
340.5,0.2371
341.0,0.2314
341.5,0.2127
342.0,0.2543
342.5,0.2381
343.0,0.2618
343.5,0.2466
344.0,0.1822
344.5,0.1841
345.0,0.244
345.5,0.2493
346.0,0.212
346.5,0.2403
347.0,0.2579
347.5,0.2086
348.0,0.238
348.5,0.2381
349.0,0.221
349.5,0.2189
350.0,0.2709
350.5,0.2859
351.0,0.2554
351.5,0.2482
352.0,0.2668
352.5,0.2084
353.0,0.2627
353.5,0.281
354.0,0.2919
354.5,0.2961
355.0,0.2952
355.5,0.2668
356.0,0.2793
356.5,0.2386
357.0,0.1972
357.5,0.2415
358.0,0.1915
358.5,0.1637
359.0,0.229
359.5,0.2919
360.0,0.3095
360.5,0.2475
361.0,0.2258
361.5,0.2602
362.0,0.2252
362.5,0.3119
363.0,0.2803
363.5,0.2584
364.0,0.3162
364.5,0.2704
365.0,0.2755
365.5,0.3459
366.0,0.3667
366.5,0.3448
367.0,0.3359
367.5,0.3488
368.0,0.3054
368.5,0.3083
369.0,0.3331
369.5,0.3552
370.0,0.3789
370.5,0.2942
371.0,0.3145
371.5,0.3937
372.0,0.2614
372.5,0.3135
373.0,0.3191
373.5,0.2078
374.0,0.302
374.5,0.2503
375.0,0.2434
375.5,0.3635
376.0,0.3014
376.5,0.3125
377.0,0.331
377.5,0.3874
378.0,0.4201
378.5,0.3972
379.0,0.3279
379.5,0.2996
380.0,0.3116
380.5,0.3776
381.0,0.3787
381.5,0.3004
382.0,0.2669
382.5,0.2277
383.0,0.2109
383.5,0.2033
384.0,0.2243
384.5,0.3301
385.0,0.3275
385.5,0.3052
386.0,0.2615
386.5,0.3437
387.0,0.2857
387.5,0.3211
388.0,0.2966
388.5,0.2933
389.0,0.3167
389.5,0.3838
390.0,0.3854
390.5,0.3548
391.0,0.4179
391.5,0.4264
392.0,0.3592
392.5,0.3218
393.0,0.1792
393.5,0.1303
394.0,0.2652
394.5,0.3374
395.0,0.4119
395.5,0.4185
396.0,0.363
396.5,0.2123
397.0,0.1594
397.5,0.3244
398.0,0.4543
398.5,0.4698
399.0,0.5091
399.5,0.5076
400.0,0.5272
401.0,0.5334
402.0,0.5634
403.0,0.5357
404.0,0.5278
405.0,0.5281
406.0,0.52
407.0,0.5121
408.0,0.5323
409.0,0.5701
410.0,0.4986
411.0,0.5405
412.0,0.5811
413.0,0.5669
414.0,0.5743
415.0,0.5763
416.0,0.5869
417.0,0.5728
418.0,0.5626
419.0,0.5704
420.0,0.5682
421.0,0.5948
422.0,0.5657
423.0,0.5529
424.0,0.585
425.0,0.5843
426.0,0.5698
427.0,0.5594
428.0,0.5451
429.0,0.5169
430.0,0.4526
431.0,0.4487
432.0,0.5798
433.0,0.5833
434.0,0.5418
435.0,0.566
436.0,0.6383
437.0,0.6303
438.0,0.5743
439.0,0.5937
440.0,0.613
441.0,0.6357
442.0,0.682
443.0,0.6642
444.0,0.6791
445.0,0.6645
446.0,0.6348
447.0,0.6868
448.0,0.6973
449.0,0.7008
450.0,0.7208
451.0,0.7478
452.0,0.7208
453.0,0.6782
454.0,0.7085
455.0,0.713
456.0,0.7302
457.0,0.7425
458.0,0.717
459.0,0.7135
460.0,0.7154
461.0,0.732
462.0,0.7381
463.0,0.7331
464.0,0.7216
465.0,0.713
466.0,0.7204
467.0,0.7071
468.0,0.7155
469.0,0.7194
470.0,0.6964
471.0,0.6957
472.0,0.7331
473.0,0.7236
474.0,0.7243
475.0,0.7302
476.0,0.7079
477.0,0.7095
478.0,0.7294
479.0,0.7253
480.0,0.727
481.0,0.7411
482.0,0.7455
483.0,0.7371
484.0,0.7223
485.0,0.6885
486.0,0.6022
487.0,0.6315
488.0,0.6928
489.0,0.6948
490.0,0.7313
491.0,0.7189
492.0,0.679
493.0,0.7013
494.0,0.7084
495.0,0.7145
496.0,0.719
497.0,0.7301
498.0,0.6959
499.0,0.7047
500.0,0.6839
501.0,0.671
502.0,0.661
503.0,0.6872
504.0,0.6679
505.0,0.6934
506.0,0.7157
507.0,0.6812
508.0,0.6606
509.0,0.6796
510.0,0.6764
511.0,0.6949
512.0,0.7027
513.0,0.6652
514.0,0.6608
515.0,0.6542
516.0,0.6526
517.0,0.58
518.0,0.6097
519.0,0.6395
520.0,0.6627
521.0,0.6689
522.0,0.6693
523.0,0.6572
524.0,0.6804
525.0,0.6879
526.0,0.657
527.0,0.6187
528.0,0.654
529.0,0.6891
530.0,0.679
531.0,0.6889
532.0,0.6652
533.0,0.6457
534.0,0.665
535.0,0.6797
536.0,0.6862
537.0,0.6593
538.0,0.6711
539.0,0.6654
540.0,0.6379
541.0,0.6415
542.0,0.6613
543.0,0.6548
544.0,0.6657
545.0,0.6638
546.0,0.6662
547.0,0.6663
548.0,0.6586
549.0,0.6607
550.0,0.6686
551.0,0.6606
552.0,0.6652
553.0,0.6532
554.0,0.6688
555.0,0.67
556.0,0.6612
557.0,0.6405
558.0,0.6353
559.0,0.6232
560.0,0.6307
561.0,0.6386
562.0,0.6337
563.0,0.6505
564.0,0.6325
565.0,0.6267
566.0,0.6173
567.0,0.6286
568.0,0.6219
569.0,0.6052
570.0,0.6053
571.0,0.6022
572.0,0.6153
573.0,0.6216
574.0,0.6194
575.0,0.6073
576.0,0.6019
577.0,0.6086
578.0,0.6
579.0,0.6033
580.0,0.6162
581.0,0.6205
582.0,0.6332
583.0,0.6355
584.0,0.6416
585.0,0.6262
586.0,0.6134
587.0,0.6262
588.0,0.6085
589.0,0.5343
590.0,0.5592
591.0,0.5946
592.0,0.5854
593.0,0.5962
594.0,0.5912
595.0,0.5749
596.0,0.6014
597.0,0.5939
598.0,0.5936
599.0,0.5947
600.0,0.5965
601.0,0.5924
602.0,0.5885
603.0,0.5986
604.0,0.6087
605.0,0.6058
606.0,0.6037
607.0,0.6102
608.0,0.6039
609.0,0.6053
610.0,0.6014
611.0,0.6048
612.0,0.6033
613.0,0.5959
614.0,0.5881
615.0,0.6013
616.0,0.5818
617.0,0.5808
618.0,0.6034
619.0,0.5974
620.0,0.6011
621.0,0.6014
622.0,0.594
623.0,0.5847
624.0,0.575
625.0,0.5737
626.0,0.5821
627.0,0.5877
628.0,0.538
629.0,0.57
630.0,0.5565
631.0,0.5728
632.0,0.5666
633.0,0.5854
634.0,0.5809
635.0,0.5906
636.0,0.5834
637.0,0.5935
638.0,0.6001
639.0,0.5938
640.0,0.5885
641.0,0.5885
642.0,0.5863
643.0,0.5943
644.0,0.5928
645.0,0.5935
646.0,0.5784
647.0,0.5685
648.0,0.5689
649.0,0.5576
650.0,0.5642
651.0,0.5894
652.0,0.5608
653.0,0.5817
654.0,0.5756
655.0,0.5521
656.0,0.4908
657.0,0.5042
658.0,0.5663
659.0,0.5708
660.0,0.5735
661.0,0.5776
662.0,0.578
663.0,0.5669
664.0,0.5747
665.0,0.576
666.0,0.5768
667.0,0.5767
668.0,0.5774
669.0,0.5866
670.0,0.5843
671.0,0.5844
672.0,0.5795
673.0,0.5884
674.0,0.5864
675.0,0.5812
676.0,0.5854
677.0,0.5797
678.0,0.5815
679.0,0.5723
680.0,0.5769
681.0,0.5732
682.0,0.5725
683.0,0.5714
684.0,0.5686
685.0,0.5736
686.0,0.57
687.0,0.3323
688.0,0.4104
689.0,0.4126
690.0,0.4401
691.0,0.4718
692.0,0.4959
693.0,0.4913
694.0,0.4877
695.0,0.5137
696.0,0.5146
697.0,0.553
698.0,0.5442
699.0,0.5266
700.0,0.52
701.0,0.5131
702.0,0.5185
703.0,0.5197
704.0,0.5391
705.0,0.5399
706.0,0.5405
707.0,0.5413
708.0,0.5424
709.0,0.545
710.0,0.544
711.0,0.5439
712.0,0.5431
713.0,0.5369
714.0,0.5391
715.0,0.5203
716.0,0.5201
717.0,0.4342
718.0,0.3969
719.0,0.3621
720.0,0.3777
721.0,0.4269
722.0,0.4991
723.0,0.4592
724.0,0.4073
725.0,0.3985
726.0,0.4179
727.0,0.4281
728.0,0.3967
729.0,0.4176
730.0,0.4411
731.0,0.4206
732.0,0.4561
733.0,0.4887
734.0,0.5021
735.0,0.4908
736.0,0.4901
737.0,0.492
738.0,0.5039
739.0,0.4939
740.0,0.5081
741.0,0.5039
742.0,0.5052
743.0,0.5183
744.0,0.5173
745.0,0.5178
746.0,0.5201
747.0,0.5214
748.0,0.5204
749.0,0.5145
750.0,0.5142
751.0,0.509
752.0,0.5113
753.0,0.5139
754.0,0.515
755.0,0.5121
756.0,0.5119
757.0,0.5127
758.0,0.5062
759.0,0.4932
760.0,0.04647
761.0,0.01994
762.0,0.2048
763.0,0.08131
764.0,0.1396
765.0,0.2046
766.0,0.2721
767.0,0.3663
768.0,0.4423
769.0,0.4562
770.0,0.4769
771.0,0.483
772.0,0.4848
773.0,0.4884
774.0,0.4861
775.0,0.4826
776.0,0.4885
777.0,0.4821
778.0,0.4791
779.0,0.4795
780.0,0.4769
781.0,0.4774
782.0,0.4805
783.0,0.4722
784.0,0.4745
785.0,0.4708
786.0,0.4758
787.0,0.4654
788.0,0.4587
789.0,0.4583
790.0,0.4432
791.0,0.4499
792.0,0.447
793.0,0.4395
794.0,0.45
795.0,0.4568
796.0,0.4387
797.0,0.439
798.0,0.4558
799.0,0.4521
800.0,0.4433
801.0,0.441
802.0,0.4397
803.0,0.4359
804.0,0.437
805.0,0.4367
806.0,0.451
807.0,0.4451
808.0,0.4457
809.0,0.4358
810.0,0.4313
811.0,0.4296
812.0,0.4147
813.0,0.4046
814.0,0.3477
815.0,0.346
816.0,0.3211
817.0,0.3277
818.0,0.3135
819.0,0.3576
820.0,0.3342
821.0,0.4008
822.0,0.3877
823.0,0.248
824.0,0.3727
825.0,0.3937
826.0,0.3756
827.0,0.3997
828.0,0.3292
829.0,0.3739
830.0,0.3682
831.0,0.3696
832.0,0.3565
833.0,0.384
834.0,0.3672
835.0,0.4104
836.0,0.3883
837.0,0.4118
838.0,0.3967
839.0,0.4061
840.0,0.4156
841.0,0.4087
842.0,0.4111
843.0,0.4125
844.0,0.4059
845.0,0.4207
846.0,0.4192
847.0,0.4118
848.0,0.4086
849.0,0.3969
850.0,0.3804
851.0,0.402
852.0,0.3995
853.0,0.3851
854.0,0.332
855.0,0.3655
856.0,0.3991
857.0,0.4085
858.0,0.4053
859.0,0.406
860.0,0.4069
861.0,0.4046
862.0,0.4111
863.0,0.4208
864.0,0.3998
865.0,0.3964
866.0,0.3564
867.0,0.372
868.0,0.4048
869.0,0.3964
870.0,0.4078
871.0,0.4022
872.0,0.4008
873.0,0.4
874.0,0.3953
875.0,0.3872
876.0,0.3912
877.0,0.3952
878.0,0.3994
879.0,0.3933
880.0,0.3849
881.0,0.3787
882.0,0.3868
883.0,0.3884
884.0,0.3864
885.0,0.3893
886.0,0.3697
887.0,0.3747
888.0,0.3796
889.0,0.3851
890.0,0.3804
891.0,0.3805
892.0,0.3677
893.0,0.3543
894.0,0.3379
895.0,0.3143
896.0,0.2945
897.0,0.247
898.0,0.2726
899.0,0.2005
900.0,0.283
901.0,0.2101
902.0,0.2559
903.0,0.2552
904.0,0.3353
905.0,0.3218
906.0,0.2996
907.0,0.2339
908.0,0.2402
909.0,0.2642
910.0,0.2261
911.0,0.2462
912.0,0.2584
913.0,0.2291
914.0,0.2286
915.0,0.2476
916.0,0.2082
917.0,0.2719
918.0,0.213
919.0,0.2792
920.0,0.2871
921.0,0.2987
922.0,0.2615
923.0,0.289
924.0,0.2669
925.0,0.2613
926.0,0.2635
927.0,0.3005
928.0,0.2047
929.0,0.1826
930.0,0.137
931.0,0.1303
932.0,0.08715
933.0,0.06774
934.0,0.03086
935.0,0.07182
936.0,0.04072
937.0,0.04097
938.0,0.0519
939.0,0.1261
940.0,0.1566
941.0,0.1119
942.0,0.1331
943.0,0.08265
944.0,0.09183
945.0,0.1167
946.0,0.05289
947.0,0.1154
948.0,0.08407
949.0,0.1609
950.0,0.03557
951.0,0.1595
952.0,0.07742
953.0,0.1055
954.0,0.1356
955.0,0.1073
956.0,0.1093
957.0,0.07693
958.0,0.1626
959.0,0.1217
960.0,0.1364
961.0,0.159
962.0,0.15
963.0,0.178
964.0,0.1615
965.0,0.1775
966.0,0.1766
967.0,0.1752
968.0,0.2543
969.0,0.2632
970.0,0.2397
971.0,0.2829
972.0,0.2688
973.0,0.2254
974.0,0.213
975.0,0.2242
976.0,0.2081
977.0,0.2465
978.0,0.2301
979.0,0.2436
980.0,0.2276
981.0,0.2815
982.0,0.266
983.0,0.2536
984.0,0.2939
985.0,0.2649
986.0,0.3014
987.0,0.2927
988.0,0.2924
989.0,0.302
990.0,0.2905
991.0,0.3026
992.0,0.3046
993.0,0.2951
994.0,0.3048
995.0,0.3048
996.0,0.3031
997.0,0.3037
998.0,0.3021
999.0,0.3012
1000.0,0.2984
1001.0,0.3028
1002.0,0.2919
1003.0,0.2973
1004.0,0.2894
1005.0,0.2797
1006.0,0.2902
1007.0,0.2966
1008.0,0.2945
1009.0,0.2924
1010.0,0.2909
1011.0,0.2951
1012.0,0.2921
1013.0,0.2946
1014.0,0.2925
1015.0,0.2905
1016.0,0.2891
1017.0,0.2897
1018.0,0.289
1019.0,0.2818
1020.0,0.2873
1021.0,0.2871
1022.0,0.2845
1023.0,0.2874
1024.0,0.2827
1025.0,0.2876
1026.0,0.2861
1027.0,0.2855
1028.0,0.2848
1029.0,0.2813
1030.0,0.2836
1031.0,0.2824
1032.0,0.2816
1033.0,0.2774
1034.0,0.2774
1035.0,0.2783
1036.0,0.2796
1037.0,0.2751
1038.0,0.2763
1039.0,0.2761
1040.0,0.2749
1041.0,0.2759
1042.0,0.274
1043.0,0.2731
1044.0,0.274
1045.0,0.2702
1046.0,0.2672
1047.0,0.2695
1048.0,0.2709
1049.0,0.2698
1050.0,0.2685
1051.0,0.268
1052.0,0.2668
1053.0,0.2646
1054.0,0.265
1055.0,0.265
1056.0,0.2639
1057.0,0.263
1058.0,0.2564
1059.0,0.2565
1060.0,0.256
1061.0,0.2556
1062.0,0.2568
1063.0,0.2541
1064.0,0.2572
1065.0,0.2549
1066.0,0.2502
1067.0,0.2533
1068.0,0.2475
1069.0,0.2401
1070.0,0.248
1071.0,0.2527
1072.0,0.2491
1073.0,0.2457
1074.0,0.2531
1075.0,0.2377
1076.0,0.2527
1077.0,0.2467
1078.0,0.2413
1079.0,0.2491
1080.0,0.2429
1081.0,0.2338
1082.0,0.2398
1083.0,0.2412
1084.0,0.2326
1085.0,0.2437
1086.0,0.2186
1087.0,0.2282
1088.0,0.2405
1089.0,0.2305
1090.0,0.224
1091.0,0.239
1092.0,0.2389
1093.0,0.1955
1094.0,0.2177
1095.0,0.2043
1096.0,0.1936
1097.0,0.2334
1098.0,0.1896
1099.0,0.1989
1100.0,0.182
1101.0,0.1853
1102.0,0.175
1103.0,0.1719
1104.0,0.1723
1105.0,0.1937
1106.0,0.1368
1107.0,0.1818
1108.0,0.1473
1109.0,0.1489
1110.0,0.179
1111.0,0.1125
1112.0,0.1482
1113.0,0.08553
1114.0,0.09619
1115.0,0.07922
1116.0,0.05835
1117.0,0.01681
1118.0,0.06489
1119.0,0.02814
1120.0,0.03494
1121.0,0.04864
1122.0,0.01718
1123.0,0.03176
1124.0,0.02675
1125.0,0.0359
1126.0,0.00939
1127.0,0.0408
1128.0,0.02087
1129.0,0.02254
1130.0,0.0139
1131.0,0.0867
1132.0,0.06621
1133.0,0.03692
1134.0,0.007123
1135.0,0.002821
1136.0,0.02909
1137.0,0.08327
1138.0,0.05777
1139.0,0.09681
1140.0,0.07679
1141.0,0.05501
1142.0,0.06528
1143.0,0.09727
1144.0,0.02919
1145.0,0.03565
1146.0,0.03839
1147.0,0.0104
1148.0,0.08375
1149.0,0.06383
1150.0,0.03219
1151.0,0.05729
1152.0,0.07416
1153.0,0.07514
1154.0,0.03449
1155.0,0.1008
1156.0,0.08863
1157.0,0.1034
1158.0,0.1022
1159.0,0.1127
1160.0,0.09398
1161.0,0.1217
1162.0,0.1218
1163.0,0.175
1164.0,0.1463
1165.0,0.1343
1166.0,0.1363
1167.0,0.1503
1168.0,0.1511
1169.0,0.1558
1170.0,0.1725
1171.0,0.1679
1172.0,0.173
1173.0,0.1722
1174.0,0.1155
1175.0,0.1699
1176.0,0.1909
1177.0,0.1804
1178.0,0.1299
1179.0,0.1925
1180.0,0.1673
1181.0,0.1729
1182.0,0.1132
1183.0,0.1712
1184.0,0.1584
1185.0,0.1509
1186.0,0.1852
1187.0,0.1745
1188.0,0.1141
1189.0,0.1622
1190.0,0.1814
1191.0,0.1684
1192.0,0.1843
1193.0,0.1753
1194.0,0.1815
1195.0,0.1691
1196.0,0.1614
1197.0,0.1828
1198.0,0.1658
1199.0,0.1356
1200.0,0.1729
1201.0,0.1649
1202.0,0.1654
1203.0,0.1633
1204.0,0.1403
1205.0,0.1708
1206.0,0.1914
1207.0,0.1642
1208.0,0.1633
1209.0,0.167
1210.0,0.1752
1211.0,0.1649
1212.0,0.1601
1213.0,0.1838
1214.0,0.1651
1215.0,0.1616
1216.0,0.1834
1217.0,0.1776
1218.0,0.1818
1219.0,0.179
1220.0,0.1821
1221.0,0.1845
1222.0,0.1793
1223.0,0.1771
1224.0,0.1751
1225.0,0.1832
1226.0,0.1852
1227.0,0.1681
1228.0,0.1868
1229.0,0.1852
1230.0,0.1816
1231.0,0.1885
1232.0,0.1873
1233.0,0.1785
1234.0,0.1889
1235.0,0.1873
1236.0,0.189
1237.0,0.1853
1238.0,0.1883
1239.0,0.1859
1240.0,0.1867
1241.0,0.1853
1242.0,0.1854
1243.0,0.1839
1244.0,0.185
1245.0,0.1859
1246.0,0.1849
1247.0,0.184
1248.0,0.1836
1249.0,0.1844
1250.0,0.1831
1251.0,0.1804
1252.0,0.1809
1253.0,0.1786
1254.0,0.1762
1255.0,0.1805
1256.0,0.1739
1257.0,0.1726
1258.0,0.1771
1259.0,0.1683
1260.0,0.1695
1261.0,0.157
1262.0,0.1508
1263.0,0.151
1264.0,0.1359
1265.0,0.1501
1266.0,0.1424
1267.0,0.1463
1268.0,0.1365
1269.0,0.07111
1270.0,0.1452
1271.0,0.1569
1272.0,0.1577
1273.0,0.1557
1274.0,0.1566
1275.0,0.1595
1276.0,0.1616
1277.0,0.1634
1278.0,0.1677
1279.0,0.1661
1280.0,0.1641
1281.0,0.1571
1282.0,0.1523
1283.0,0.1638
1284.0,0.1676
1285.0,0.1688
1286.0,0.1716
1287.0,0.168
1288.0,0.1683
1289.0,0.1611
1290.0,0.1669
1291.0,0.1696
1292.0,0.1559
1293.0,0.1655
1294.0,0.1641
1295.0,0.1623
1296.0,0.1529
1297.0,0.1431
1298.0,0.1573
1299.0,0.166
1300.0,0.135
1301.0,0.1402
1302.0,0.1569
1303.0,0.1339
1304.0,0.1092
1305.0,0.1533
1306.0,0.1529
1307.0,0.1134
1308.0,0.1349
1309.0,0.151
1310.0,0.1108
1311.0,0.1282
1312.0,0.124
1313.0,0.1205
1314.0,0.1061
1315.0,0.1036
1316.0,0.1252
1317.0,0.118
1318.0,0.1304
1319.0,0.09588
1320.0,0.09417
1321.0,0.1118
1322.0,0.1118
1323.0,0.07926
1324.0,0.09426
1325.0,0.1229
1326.0,0.1024
1327.0,0.09686
1328.0,0.08187
1329.0,0.05726
1330.0,0.0767
1331.0,0.04162
1332.0,0.04444
1333.0,0.06279
1334.0,0.05599
1335.0,0.07869
1336.0,0.0596
1337.0,0.05173
1338.0,0.05579
1339.0,0.05622
1340.0,0.05605
1341.0,0.05153
1342.0,0.05448
1343.0,0.03138
1344.0,0.01928
1345.0,0.02769
1346.0,0.01079
1347.0,0.01047
1348.0,0.0004005
1349.0,0.001648
1350.0,0.001886
1351.0,0.0002816
1352.0,4.177e-05
1353.0,1.278e-06
1354.0,6.444e-06
1355.0,1.646e-08
1356.0,6.106e-07
1357.0,9.325e-07
1358.0,2.04e-08
1359.0,1.103e-09
1360.0,6.843e-09
1361.0,1.783e-12
1362.0,3.511e-15
1363.0,6.496e-09
1364.0,2.821e-09
1365.0,9.258e-16
1366.0,3.516e-08
1367.0,1.837e-08
1368.0,6.197e-18
1369.0,1.034e-09
1370.0,3.626e-10
1371.0,1.48e-11
1372.0,1.034e-08
1373.0,3.645e-07
1374.0,2.551e-06
1375.0,4.272e-06
1376.0,5.955e-06
1377.0,2.521e-06
1378.0,2.757e-05
1379.0,1.068e-06
1380.0,1.148e-06
1381.0,2.513e-08
1382.0,8.333e-09
1383.0,9.885e-11
1384.0,9.969e-10
1385.0,1.238e-08
1386.0,5.661e-09
1387.0,1.915e-06
1388.0,4.381e-08
1389.0,1.083e-05
1390.0,8.979e-06
1391.0,5.7e-06
1392.0,3.474e-07
1393.0,2.26e-06
1394.0,5.602e-07
1395.0,2.874e-09
1396.0,2.912e-12
1397.0,7.685e-07
1398.0,2.9e-05
1399.0,1.896e-05
1400.0,9.155e-13
1401.0,5.909e-12
1402.0,0.0001012
1403.0,0.0001114
1404.0,3.184e-05
1405.0,1.017e-09
1406.0,6.609e-05
1407.0,7.515e-06
1408.0,5.658e-05
1409.0,1.337e-05
1410.0,1.443e-05
1411.0,0.0001007
1412.0,0.000161
1413.0,0.002571
1414.0,1.201e-05
1415.0,4.953e-06
1416.0,0.005857
1417.0,0.001329
1418.0,0.001359
1419.0,0.0001972
1420.0,0.0008216
1421.0,0.0009491
1422.0,0.007692
1423.0,0.001395
1424.0,0.002774
1425.0,0.003769
1426.0,0.004942
1427.0,0.01049
1428.0,0.0003557
1429.0,0.007046
1430.0,0.01416
1431.0,0.0161
1432.0,0.0002744
1433.0,0.009536
1434.0,0.004512
1435.0,0.003428
