interpolation:linear
wavelength,value
280.0,1.1449999999999998e-22
280.5,3.808e-21
281.0,2.0520000000000002e-20
281.5,4.393e-19
282.0,5.438e-19
282.5,1.327e-18
283.0,4.173e-18
283.5,6.795e-18
284.0,1.122e-16
284.5,3.286e-16
285.0,5.748e-16
285.5,2.798e-15
286.0,1.125e-14
286.5,5.046e-14
287.0,1.448e-13
287.5,5.592e-13
288.0,1.983e-12
288.5,5.803e-12
289.0,1.516e-11
289.5,4.525e-11
290.0,1.25e-10
290.5,2.544e-10
291.0,5.456e-10
291.5,1.567e-09
292.0,3.162e-09
292.5,4.42e-09
293.0,9.438e-09
293.5,2.285e-08
294.0,3.567e-08
294.5,4.744e-08
295.0,8.014e-08
295.5,1.344e-07
296.0,2.569e-07
296.5,3.557e-07
297.0,4.768e-07
297.5,1.26e-06
298.0,1.956e-06
298.5,1.943e-06
299.0,4.225e-06
299.5,6.83e-06
300.0,7.385e-06
300.5,1.049e-05
301.0,1.836e-05
301.5,2.825e-05
302.0,2.368e-05
302.5,4.642e-05
303.0,8.41e-05
303.5,0.0001074
304.0,0.0001038
304.5,0.0001675
305.0,0.0002848
305.5,0.0003515
306.0,0.0003502
306.5,0.0004581
307.0,0.0007598
307.5,0.001127
308.0,0.001211
308.5,0.001511
309.0,0.00177
309.5,0.002364
310.0,0.002549
310.5,0.004276
311.0,0.005685
311.5,0.005625
312.0,0.006368
312.5,0.00841
313.0,0.00952
313.5,0.008882
314.0,0.01225
314.5,0.01236
315.0,0.01662
315.5,0.01305
316.0,0.01266
316.5,0.01989
317.0,0.02465
317.5,0.025
318.0,0.02074
318.5,0.02896
319.0,0.03646
319.5,0.02702
320.0,0.03217
320.5,0.04539
321.0,0.04501
321.5,0.04362
322.0,0.04141
322.5,0.03624
323.0,0.03891
323.5,0.05198
324.0,0.06145
324.5,0.0604
325.0,0.0496
325.5,0.06781
326.0,0.08556
326.5,0.08929
327.0,0.08765
327.5,0.08304
328.0,0.06998
328.5,0.07862
329.0,0.09922
329.5,0.1145
330.0,0.114
330.5,0.08762
331.0,0.08806
331.5,0.09226
332.0,0.1041
332.5,0.1051
333.0,0.1036
333.5,0.0908
334.0,0.09256
334.5,0.1108
335.0,0.1064
335.5,0.1252
336.0,0.08666
336.5,0.09971
337.0,0.08058
337.5,0.09969
338.0,0.1003
338.5,0.1171
339.0,0.1162
339.5,0.1117
340.0,0.13
340.5,0.1175
341.0,0.1156
341.5,0.1066
342.0,0.1275
342.5,0.1195
343.0,0.1312
343.5,0.1234
344.0,0.09046
344.5,0.09194
345.0,0.1222
345.5,0.1251
346.0,0.1065
346.5,0.1208
347.0,0.1295
347.5,0.1047
348.0,0.1197
348.5,0.1198
349.0,0.1113
349.5,0.1103
350.0,0.1365
350.5,0.1441
351.0,0.1286
351.5,0.1247
352.0,0.1343
352.5,0.105
353.0,0.1325
353.5,0.1418
354.0,0.1474
354.5,0.1495
355.0,0.149
355.5,0.1348
356.0,0.1412
356.5,0.1206
357.0,0.09967
357.5,0.1221
358.0,0.09684
358.5,0.0828
359.0,0.1158
359.5,0.1475
360.0,0.1565
360.5,0.1252
361.0,0.1143
361.5,0.1318
362.0,0.1141
362.5,0.1582
363.0,0.1422
363.5,0.1311
364.0,0.1605
364.5,0.1373
365.0,0.1399
365.5,0.1758
366.0,0.1864
366.5,0.1754
367.0,0.1709
367.5,0.1775
368.0,0.1554
368.5,0.157
369.0,0.1696
369.5,0.181
370.0,0.1931
370.5,0.15
371.0,0.1604
371.5,0.2008
372.0,0.1334
372.5,0.1601
373.0,0.163
373.5,0.1061
374.0,0.1544
374.5,0.128
375.0,0.1245
375.5,0.1859
376.0,0.1542
376.5,0.1599
377.0,0.1695
377.5,0.1985
378.0,0.2152
378.5,0.2035
379.0,0.1681
379.5,0.1536
380.0,0.1598
380.5,0.1937
381.0,0.1943
381.5,0.1543
382.0,0.1372
382.5,0.1171
383.0,0.1085
383.5,0.1046
384.0,0.1155
384.5,0.17
385.0,0.1688
385.5,0.1573
386.0,0.1349
386.5,0.1774
387.0,0.1475
387.5,0.1658
388.0,0.1532
388.5,0.1516
389.0,0.1637
389.5,0.1985
390.0,0.1994
390.5,0.1837
391.0,0.2164
391.5,0.2209
392.0,0.1862
392.5,0.1669
393.0,0.09294
393.5,0.06763
394.0,0.1377
394.5,0.1753
395.0,0.214
395.5,0.2175
396.0,0.1888
396.5,0.1105
397.0,0.083
397.5,0.1689
398.0,0.2367
398.5,0.2448
399.0,0.2655
399.5,0.2648
400.0,0.2751
401.0,0.2766
402.0,0.2924
403.0,0.2783
404.0,0.2744
405.0,0.2748
406.0,0.2709
407.0,0.267
408.0,0.2777
409.0,0.2976
410.0,0.2605
411.0,0.2827
412.0,0.3044
413.0,0.2971
414.0,0.3013
415.0,0.3026
416.0,0.3085
417.0,0.3013
418.0,0.2961
419.0,0.3005
420.0,0.2996
421.0,0.3139
422.0,0.2987
423.0,0.2922
424.0,0.3093
425.0,0.3092
426.0,0.3019
427.0,0.2967
428.0,0.2893
429.0,0.2747
430.0,0.2408
431.0,0.2387
432.0,0.3088
433.0,0.311
434.0,0.289
435.0,0.302
436.0,0.341
437.0,0.3372
438.0,0.3075
439.0,0.3176
440.0,0.3282
441.0,0.3407
442.0,0.3657
443.0,0.3561
444.0,0.3645
445.0,0.3567
446.0,0.3414
447.0,0.3699
448.0,0.3754
449.0,0.3779
450.0,0.389
451.0,0.4038
452.0,0.3895
453.0,0.3668
454.0,0.3837
455.0,0.3862
456.0,0.3957
457.0,0.4024
458.0,0.3883
459.0,0.3866
460.0,0.3875
461.0,0.3966
462.0,0.4004
463.0,0.3977
464.0,0.3922
465.0,0.3882
466.0,0.3927
467.0,0.3854
468.0,0.39
469.0,0.3921
470.0,0.3796
471.0,0.3794
472.0,0.3998
473.0,0.3947
474.0,0.3948
475.0,0.3975
476.0,0.3847
477.0,0.3851
478.0,0.3961
479.0,0.3942
480.0,0.3954
481.0,0.4036
482.0,0.4066
483.0,0.4027
484.0,0.3951
485.0,0.3771
486.0,0.3303
487.0,0.3469
488.0,0.3805
489.0,0.3815
490.0,0.4019
491.0,0.3954
492.0,0.3736
493.0,0.386
494.0,0.3901
495.0,0.3936
496.0,0.3961
497.0,0.4022
498.0,0.3832
499.0,0.3877
500.0,0.3759
501.0,0.3684
502.0,0.362
503.0,0.3755
504.0,0.3626
505.0,0.3783
506.0,0.3905
507.0,0.3718
508.0,0.3613
509.0,0.3723
510.0,0.371
511.0,0.3817
512.0,0.3862
513.0,0.3657
514.0,0.3635
515.0,0.3599
516.0,0.3588
517.0,0.3191
518.0,0.3353
519.0,0.3517
520.0,0.3643
521.0,0.3677
522.0,0.3676
523.0,0.3608
524.0,0.3731
525.0,0.3765
526.0,0.3594
527.0,0.3379
528.0,0.3568
529.0,0.3755
530.0,0.3698
531.0,0.3749
532.0,0.3619
533.0,0.3513
534.0,0.362
535.0,0.3703
536.0,0.3741
537.0,0.3597
538.0,0.3663
539.0,0.3632
540.0,0.348
541.0,0.3492
542.0,0.3596
543.0,0.3566
544.0,0.362
545.0,0.361
546.0,0.3618
547.0,0.3623
548.0,0.3584
549.0,0.3597
550.0,0.3641
551.0,0.3598
552.0,0.3623
553.0,0.3557
554.0,0.3641
555.0,0.3646
556.0,0.3597
557.0,0.3481
558.0,0.345
559.0,0.3379
560.0,0.3418
561.0,0.3456
562.0,0.3425
563.0,0.351
564.0,0.3408
565.0,0.3374
566.0,0.3319
567.0,0.3375
568.0,0.3326
569.0,0.3213
570.0,0.3216
571.0,0.3205
572.0,0.3259
573.0,0.329
574.0,0.3274
575.0,0.3204
576.0,0.3176
577.0,0.3214
578.0,0.3176
579.0,0.3205
580.0,0.3291
581.0,0.3328
582.0,0.3408
583.0,0.3431
584.0,0.347
585.0,0.3391
586.0,0.3322
587.0,0.3384
588.0,0.3259
589.0,0.2806
590.0,0.294
591.0,0.3161
592.0,0.3092
593.0,0.3176
594.0,0.3138
595.0,0.3028
596.0,0.3217
597.0,0.3163
598.0,0.3176
599.0,0.3188
600.0,0.321
601.0,0.3197
602.0,0.3178
603.0,0.3237
604.0,0.3294
605.0,0.3282
606.0,0.3276
607.0,0.3317
608.0,0.3288
609.0,0.33
610.0,0.3284
611.0,0.3306
612.0,0.3302
613.0,0.3264
614.0,0.3226
615.0,0.3303
616.0,0.32
617.0,0.3198
618.0,0.3325
619.0,0.3293
620.0,0.3314
621.0,0.3312
622.0,0.3269
623.0,0.3215
624.0,0.3165
625.0,0.3157
626.0,0.3201
627.0,0.3221
628.0,0.2811
629.0,0.3075
630.0,0.2997
631.0,0.3132
632.0,0.3108
633.0,0.323
634.0,0.3221
635.0,0.3283
636.0,0.3253
637.0,0.3316
638.0,0.3364
639.0,0.3334
640.0,0.3312
641.0,0.3317
642.0,0.3311
643.0,0.3357
644.0,0.3355
645.0,0.3355
646.0,0.3253
647.0,0.3159
648.0,0.3166
649.0,0.3095
650.0,0.3183
651.0,0.3333
652.0,0.3125
653.0,0.3294
654.0,0.3263
655.0,0.3106
656.0,0.2777
657.0,0.2857
658.0,0.3225
659.0,0.3257
660.0,0.3277
661.0,0.3303
662.0,0.3298
663.0,0.3237
664.0,0.3295
665.0,0.3313
666.0,0.3322
667.0,0.3327
668.0,0.3337
669.0,0.3394
670.0,0.3383
671.0,0.3386
672.0,0.336
673.0,0.3414
674.0,0.3405
675.0,0.3378
676.0,0.3404
677.0,0.3373
678.0,0.3386
679.0,0.3334
680.0,0.3362
681.0,0.3341
682.0,0.3338
683.0,0.3332
684.0,0.3315
685.0,0.3347
686.0,0.3323
687.0,0.1422
688.0,0.1985
689.0,0.2004
690.0,0.2225
691.0,0.2492
692.0,0.2711
693.0,0.2683
694.0,0.2684
695.0,0.29
696.0,0.2912
697.0,0.3208
698.0,0.3156
699.0,0.2998
700.0,0.2957
701.0,0.2892
702.0,0.2945
703.0,0.2961
704.0,0.3106
705.0,0.3109
706.0,0.3125
707.0,0.3136
708.0,0.314
709.0,0.3179
710.0,0.316
711.0,0.3169
712.0,0.3176
713.0,0.3128
714.0,0.3145
715.0,0.3011
716.0,0.3004
717.0,0.2311
718.0,0.2103
719.0,0.1904
720.0,0.1963
721.0,0.2329
722.0,0.2843
723.0,0.256
724.0,0.2197
725.0,0.213
726.0,0.2236
727.0,0.2342
728.0,0.2112
729.0,0.2291
730.0,0.2396
731.0,0.2277
732.0,0.2544
733.0,0.2789
734.0,0.2889
735.0,0.2811
736.0,0.2801
737.0,0.2814
738.0,0.294
739.0,0.2884
740.0,0.2984
741.0,0.2968
742.0,0.2987
743.0,0.3068
744.0,0.3069
745.0,0.3078
746.0,0.3092
747.0,0.3101
748.0,0.3095
749.0,0.3061
750.0,0.306
751.0,0.3029
752.0,0.3044
753.0,0.306
754.0,0.3067
755.0,0.3049
756.0,0.3049
757.0,0.3053
758.0,0.3013
759.0,0.2897
760.0,0.008277
761.0,0.002793
762.0,0.07363
763.0,0.01817
764.0,0.04065
765.0,0.0734
766.0,0.1171
767.0,0.1835
768.0,0.2469
769.0,0.2608
770.0,0.2799
771.0,0.2868
772.0,0.2889
773.0,0.2913
774.0,0.2903
775.0,0.2883
776.0,0.2919
777.0,0.2881
778.0,0.2863
779.0,0.2866
780.0,0.2851
781.0,0.2855
782.0,0.2873
783.0,0.2825
784.0,0.284
785.0,0.2815
786.0,0.2843
787.0,0.2751
788.0,0.2699
789.0,0.2697
790.0,0.2572
791.0,0.2649
792.0,0.2638
793.0,0.2589
794.0,0.2688
795.0,0.2718
796.0,0.2558
797.0,0.2554
798.0,0.2705
799.0,0.2675
800.0,0.261
801.0,0.2583
802.0,0.2574
803.0,0.2544
804.0,0.2557
805.0,0.2572
806.0,0.2683
807.0,0.2643
808.0,0.2648
809.0,0.2568
810.0,0.253
811.0,0.2498
812.0,0.2368
813.0,0.2302
814.0,0.1893
815.0,0.1893
816.0,0.1743
817.0,0.178
818.0,0.1684
819.0,0.1993
820.0,0.184
821.0,0.2324
822.0,0.2229
823.0,0.1265
824.0,0.2097
825.0,0.2286
826.0,0.214
827.0,0.2318
828.0,0.1798
829.0,0.214
830.0,0.2101
831.0,0.2107
832.0,0.2012
833.0,0.2216
834.0,0.2088
835.0,0.242
836.0,0.2227
837.0,0.2427
838.0,0.2306
839.0,0.2394
840.0,0.2457
841.0,0.2404
842.0,0.2438
843.0,0.2469
844.0,0.2418
845.0,0.2521
846.0,0.2516
847.0,0.2478
848.0,0.2449
849.0,0.2379
850.0,0.2281
851.0,0.24
852.0,0.2391
853.0,0.2312
854.0,0.1987
855.0,0.2197
856.0,0.2395
857.0,0.2458
858.0,0.2435
859.0,0.2444
860.0,0.2453
861.0,0.2438
862.0,0.2478
863.0,0.2537
864.0,0.2411
865.0,0.2391
866.0,0.215
867.0,0.2244
868.0,0.2443
869.0,0.2393
870.0,0.2461
871.0,0.2428
872.0,0.242
873.0,0.2415
874.0,0.2387
875.0,0.2338
876.0,0.2361
877.0,0.2386
878.0,0.2409
879.0,0.2373
880.0,0.2322
881.0,0.2281
882.0,0.2327
883.0,0.2342
884.0,0.2328
885.0,0.2345
886.0,0.2211
887.0,0.2254
888.0,0.2277
889.0,0.2323
890.0,0.2277
891.0,0.2286
892.0,0.2187
893.0,0.2089
894.0,0.1946
895.0,0.1755
896.0,0.1633
897.0,0.1312
898.0,0.1473
899.0,0.1023
900.0,0.1568
901.0,0.1071
902.0,0.1385
903.0,0.1351
904.0,0.1928
905.0,0.1834
906.0,0.169
907.0,0.122
908.0,0.1278
909.0,0.1437
910.0,0.1165
911.0,0.1329
912.0,0.1389
913.0,0.1177
914.0,0.119
915.0,0.1277
916.0,0.1069
917.0,0.146
918.0,0.1086
919.0,0.1525
920.0,0.163
921.0,0.1685
922.0,0.1427
923.0,0.1639
924.0,0.1436
925.0,0.1412
926.0,0.141
927.0,0.1656
928.0,0.09919
929.0,0.085
930.0,0.05797
931.0,0.05461
932.0,0.03148
933.0,0.02262
934.0,0.007166
935.0,0.02534
936.0,0.01204
937.0,0.01215
938.0,0.01617
939.0,0.05267
940.0,0.06975
941.0,0.04492
942.0,0.05562
943.0,0.03103
944.0,0.03845
945.0,0.04806
946.0,0.01739
947.0,0.04626
948.0,0.03338
949.0,0.06967
950.0,0.01034
951.0,0.06919
952.0,0.02841
953.0,0.04244
954.0,0.05884
955.0,0.04373
956.0,0.05071
957.0,0.02814
958.0,0.07882
959.0,0.05328
960.0,0.05982
961.0,0.07462
962.0,0.0704
963.0,0.08795
964.0,0.07872
965.0,0.08704
966.0,0.08667
967.0,0.08511
968.0,0.1429
969.0,0.1443
970.0,0.1303
971.0,0.1621
972.0,0.1519
973.0,0.1194
974.0,0.1127
975.0,0.1207
976.0,0.1072
977.0,0.1378
978.0,0.1243
979.0,0.1335
980.0,0.124
981.0,0.1614
982.0,0.1495
983.0,0.1411
984.0,0.1726
985.0,0.1486
986.0,0.1797
987.0,0.1721
988.0,0.1722
989.0,0.1819
990.0,0.171
991.0,0.182
992.0,0.1835
993.0,0.1751
994.0,0.184
995.0,0.1844
996.0,0.1829
997.0,0.1835
998.0,0.1824
999.0,0.1819
1000.0,0.1795
1001.0,0.183
1002.0,0.1732
1003.0,0.1795
1004.0,0.1738
1005.0,0.1692
1006.0,0.175
1007.0,0.1791
1008.0,0.1773
1009.0,0.1754
1010.0,0.1742
1011.0,0.1783
1012.0,0.1759
1013.0,0.1782
1014.0,0.1769
1015.0,0.1756
1016.0,0.1747
1017.0,0.1749
1018.0,0.1749
1019.0,0.1693
1020.0,0.1737
1021.0,0.1738
1022.0,0.1717
1023.0,0.1735
1024.0,0.1694
1025.0,0.174
1026.0,0.1727
1027.0,0.1725
1028.0,0.1719
1029.0,0.1697
1030.0,0.1715
1031.0,0.1706
1032.0,0.1703
1033.0,0.1677
1034.0,0.1678
1035.0,0.1683
1036.0,0.1689
1037.0,0.1663
1038.0,0.1669
1039.0,0.1667
1040.0,0.166
1041.0,0.1665
1042.0,0.1653
1043.0,0.1647
1044.0,0.1652
1045.0,0.1628
1046.0,0.1609
1047.0,0.1622
1048.0,0.1629
1049.0,0.1622
1050.0,0.1613
1051.0,0.1609
1052.0,0.16
1053.0,0.1585
1054.0,0.1586
1055.0,0.1584
1056.0,0.1576
1057.0,0.1568
1058.0,0.1527
1059.0,0.1526
1060.0,0.1522
1061.0,0.1518
1062.0,0.1523
1063.0,0.1506
1064.0,0.1525
1065.0,0.1507
1066.0,0.1482
1067.0,0.15
1068.0,0.1462
1069.0,0.1421
1070.0,0.1465
1071.0,0.1504
1072.0,0.1474
1073.0,0.1455
1074.0,0.1511
1075.0,0.1393
1076.0,0.1508
1077.0,0.1457
1078.0,0.1417
1079.0,0.1492
1080.0,0.1435
1081.0,0.1366
1082.0,0.1425
1083.0,0.1441
1084.0,0.1354
1085.0,0.1441
1086.0,0.1259
1087.0,0.1336
1088.0,0.1433
1089.0,0.1343
1090.0,0.1295
1091.0,0.1417
1092.0,0.142
1093.0,0.1095
1094.0,0.1285
1095.0,0.1144
1096.0,0.1067
1097.0,0.1388
1098.0,0.1032
1099.0,0.1092
1100.0,0.09767
1101.0,0.1005
1102.0,0.09294
1103.0,0.08998
1104.0,0.09045
1105.0,0.1057
1106.0,0.06512
1107.0,0.09761
1108.0,0.07335
1109.0,0.07475
1110.0,0.09438
1111.0,0.05156
1112.0,0.07472
1113.0,0.03631
1114.0,0.04084
1115.0,0.03282
1116.0,0.021
1117.0,0.00402
1118.0,0.02383
1119.0,0.008084
1120.0,0.009576
1121.0,0.01438
1122.0,0.00358
1123.0,0.008775
1124.0,0.007354
1125.0,0.01051
1126.0,0.001534
1127.0,0.01208
1128.0,0.004556
1129.0,0.005028
1130.0,0.003034
1131.0,0.03189
1132.0,0.02307
1133.0,0.01005
1134.0,0.001151
1135.0,0.0005208
1136.0,0.007024
1137.0,0.02947
1138.0,0.01971
1139.0,0.0413
1140.0,0.02982
1141.0,0.0189
1142.0,0.0237
1143.0,0.03918
1144.0,0.008919
1145.0,0.009607
1146.0,0.01033
1147.0,0.001672
1148.0,0.03289
1149.0,0.02311
1150.0,0.01075
1151.0,0.01959
1152.0,0.02787
1153.0,0.03035
1154.0,0.009861
1155.0,0.04298
1156.0,0.03612
1157.0,0.04648
1158.0,0.04574
1159.0,0.05177
1160.0,0.04263
1161.0,0.05997
1162.0,0.05936
1163.0,0.09504
1164.0,0.07631
1165.0,0.06677
1166.0,0.07083
1167.0,0.07961
1168.0,0.07945
1169.0,0.08257
1170.0,0.09449
1171.0,0.0921
1172.0,0.09713
1173.0,0.09441
1174.0,0.05734
1175.0,0.09539
1176.0,0.1116
1177.0,0.1024
1178.0,0.06905
1179.0,0.1125
1180.0,0.09314
1181.0,0.09632
1182.0,0.05729
1183.0,0.09626
1184.0,0.087
1185.0,0.08102
1186.0,0.106
1187.0,0.09767
1188.0,0.0564
1189.0,0.09057
1190.0,0.1044
1191.0,0.09247
1192.0,0.1065
1193.0,0.09981
1194.0,0.1044
1195.0,0.0942
1196.0,0.08836
1197.0,0.1061
1198.0,0.09537
1199.0,0.07211
1200.0,0.09855
1201.0,0.09158
1202.0,0.09421
1203.0,0.09129
1204.0,0.07635
1205.0,0.09875
1206.0,0.1135
1207.0,0.0925
1208.0,0.09382
1209.0,0.0961
1210.0,0.1023
1211.0,0.09431
1212.0,0.08775
1213.0,0.1071
1214.0,0.09174
1215.0,0.08962
1216.0,0.1074
1217.0,0.1029
1218.0,0.1063
1219.0,0.1039
1220.0,0.1067
1221.0,0.1089
1222.0,0.1054
1223.0,0.1035
1224.0,0.1009
1225.0,0.1078
1226.0,0.11
1227.0,0.0965
1228.0,0.1116
1229.0,0.1101
1230.0,0.1073
1231.0,0.1135
1232.0,0.1127
1233.0,0.1046
1234.0,0.1144
1235.0,0.113
1236.0,0.1144
1237.0,0.1111
1238.0,0.114
1239.0,0.1125
1240.0,0.1132
1241.0,0.1115
1242.0,0.1123
1243.0,0.1114
1244.0,0.1118
1245.0,0.1125
1246.0,0.1119
1247.0,0.1112
1248.0,0.1105
1249.0,0.1114
1250.0,0.1103
1251.0,0.1082
1252.0,0.1091
1253.0,0.1066
1254.0,0.1043
1255.0,0.1086
1256.0,0.1025
1257.0,0.1013
1258.0,0.1056
1259.0,0.09712
1260.0,0.09819
1261.0,0.0871
1262.0,0.08166
1263.0,0.08167
1264.0,0.06927
1265.0,0.08125
1266.0,0.0745
1267.0,0.07836
1268.0,0.07031
1269.0,0.02434
1270.0,0.07707
1271.0,0.08756
1272.0,0.08839
1273.0,0.08682
1274.0,0.08797
1275.0,0.09024
1276.0,0.09224
1277.0,0.09436
1278.0,0.09836
1279.0,0.0974
1280.0,0.09628
1281.0,0.09294
1282.0,0.09133
1283.0,0.09799
1284.0,0.1
1285.0,0.101
1286.0,0.1033
1287.0,0.09993
1288.0,0.1005
1289.0,0.09377
1290.0,0.09977
1291.0,0.1018
1292.0,0.08941
1293.0,0.09842
1294.0,0.09749
1295.0,0.09477
1296.0,0.08683
1297.0,0.07965
1298.0,0.0914
1299.0,0.09908
1300.0,0.07475
1301.0,0.07847
1302.0,0.09133
1303.0,0.07455
1304.0,0.05576
1305.0,0.08904
1306.0,0.08796
1307.0,0.05981
1308.0,0.07606
1309.0,0.08571
1310.0,0.05782
1311.0,0.071
1312.0,0.06818
1313.0,0.0646
1314.0,0.05487
1315.0,0.05257
1316.0,0.06833
1317.0,0.06345
1318.0,0.07247
1319.0,0.04737
1320.0,0.0475
1321.0,0.05876
1322.0,0.05751
1323.0,0.03608
1324.0,0.0469
1325.0,0.06606
1326.0,0.05223
1327.0,0.04844
1328.0,0.03913
1329.0,0.0235
1330.0,0.03388
1331.0,0.01478
1332.0,0.01664
1333.0,0.0242
1334.0,0.02462
1335.0,0.03511
1336.0,0.02426
1337.0,0.02088
1338.0,0.02211
1339.0,0.02267
1340.0,0.02378
1341.0,0.01907
1342.0,0.02065
1343.0,0.008672
1344.0,0.005698
1345.0,0.007634
1346.0,0.001822
1347.0,0.001574
1348.0,2.653e-05
1349.0,0.0001232
1350.0,0.0001517
1351.0,1.179e-05
1352.0,1.222e-06
1353.0,5.287e-08
1354.0,2.118e-07
1355.0,1.373e-09
1356.0,2.566e-08
1357.0,3.885e-08
1358.0,1.613e-09
1359.0,2.017e-10
1360.0,7.307e-10
1361.0,8.153e-13
1362.0,2.23e-15
1363.0,9.803e-10
1364.0,4.049e-10
1365.0,7.786e-16
1366.0,4.25e-09
1367.0,1.739e-09
1368.0,6.012e-18
1369.0,1.492e-10
1370.0,7.343e-11
1371.0,4.162e-12
1372.0,9.441e-10
1373.0,1.938e-08
1374.0,9.528e-08
1375.0,1.667e-07
1376.0,1.856e-07
1377.0,8.169e-08
1378.0,7.87e-07
1379.0,3.516e-08
1380.0,4.292e-08
1381.0,1.1e-09
1382.0,8.263e-10
1383.0,1.234e-11
1384.0,1.616e-10
1385.0,7.851e-10
1386.0,7.271e-10
1387.0,8.969e-08
1388.0,1.862e-09
1389.0,3.386e-07
1390.0,2.816e-07
1391.0,1.886e-07
1392.0,1.247e-08
1393.0,7.154e-08
1394.0,3.043e-08
1395.0,2.214e-10
1396.0,1.061e-12
1397.0,2.629e-08
1398.0,8.029e-07
1399.0,5.226e-07
1400.0,4.538e-13
1401.0,1.883e-12
1402.0,4.07e-06
1403.0,3.629e-06
1404.0,9.229e-07
1405.0,1.043e-10
1406.0,1.686e-06
1407.0,2.862e-07
1408.0,1.465e-06
1409.0,3.695e-07
1410.0,4.2e-07
1411.0,3.412e-06
1412.0,6.805e-06
1413.0,0.0001777
1414.0,3.619e-07
1415.0,1.451e-07
1416.0,0.0008265
1417.0,0.0001317
1418.0,8.61e-05
1419.0,1.159e-05
1420.0,5.159e-05
1421.0,8.852e-05
