interpolation:linear
wavelength,value
280.0,6.505e-20
280.5,1.796e-18
281.0,6.144e-19
281.5,4.818e-19
282.0,2.195e-18
282.5,6.29e-18
283.0,2.109e-17
283.5,3.488e-17
284.0,5.499e-16
284.5,1.55e-15
285.0,3.288e-15
285.5,2.082e-14
286.0,8.982e-14
286.5,4.428e-13
287.0,1.335e-12
287.5,5.383e-12
288.0,1.594e-11
288.5,6.365e-11
289.0,2.154e-10
289.5,8.161e-10
290.0,2.692e-09
290.5,6.313e-09
291.0,1.588e-08
291.5,5.516e-08
292.0,1.452e-07
292.5,2.275e-07
293.0,5.607e-07
293.5,1.655e-06
294.0,3e-06
294.5,3.888e-06
295.0,7.517e-06
295.5,1.779e-05
296.0,3.352e-05
296.5,4.577e-05
297.0,6.07e-05
297.5,0.0001577
298.0,0.0002418
298.5,0.0002381
299.0,0.0005137
299.5,0.0008195
300.0,0.0008818
300.5,0.001248
301.0,0.002173
301.5,0.003343
302.0,0.002809
302.5,0.005277
303.0,0.009004
303.5,0.01097
304.0,0.01007
304.5,0.01416
305.0,0.01977
305.5,0.0215
306.0,0.0204
306.5,0.02458
307.0,0.03395
307.5,0.04219
308.0,0.04408
308.5,0.05037
309.0,0.04844
309.5,0.05294
310.0,0.05205
310.5,0.0834
311.0,0.1028
311.5,0.09847
312.0,0.09469
312.5,0.1123
313.0,0.1201
313.5,0.1181
314.0,0.1431
314.5,0.1217
315.0,0.1587
315.5,0.1354
316.0,0.1143
316.5,0.1594
317.0,0.198
317.5,0.2077
318.0,0.1588
318.5,0.1898
319.0,0.2209
319.5,0.1857
320.0,0.2254
320.5,0.2712
321.0,0.2332
321.5,0.2228
322.0,0.2465
322.5,0.214
323.0,0.2079
323.5,0.2496
324.0,0.2901
324.5,0.2974
325.0,0.2603
325.5,0.3282
326.0,0.3987
326.5,0.394
327.0,0.3945
327.5,0.3833
328.0,0.3473
328.5,0.3573
329.0,0.4207
329.5,0.475
330.0,0.4811
330.5,0.39
331.0,0.399
331.5,0.4016
332.0,0.4278
332.5,0.4205
333.0,0.4207
333.5,0.3847
334.0,0.3947
334.5,0.4501
335.0,0.42
335.5,0.4905
336.0,0.3394
336.5,0.3986
337.0,0.3286
337.5,0.4094
338.0,0.3959
338.5,0.4567
339.0,0.4519
339.5,0.4346
340.0,0.5109
340.5,0.46
341.0,0.4487
341.5,0.4118
342.0,0.492
342.5,0.4602
343.0,0.5062
343.5,0.4767
344.0,0.3521
344.5,0.3558
345.0,0.4705
345.5,0.4802
346.0,0.408
346.5,0.4618
347.0,0.4958
347.5,0.4009
348.0,0.4568
348.5,0.4565
349.0,0.4234
349.5,0.4191
350.0,0.5183
350.5,0.5467
351.0,0.4884
351.5,0.4748
352.0,0.5097
352.5,0.3977
353.0,0.5007
353.5,0.5353
354.0,0.5557
354.5,0.5635
355.0,0.5616
355.5,0.5073
356.0,0.5306
356.5,0.4531
357.0,0.3744
357.5,0.4583
358.0,0.3632
358.5,0.3103
359.0,0.4341
359.5,0.5532
360.0,0.5864
360.5,0.4686
361.0,0.4271
361.5,0.4917
362.0,0.4251
362.5,0.5881
363.0,0.5281
363.5,0.4864
364.0,0.5947
364.5,0.5083
365.0,0.5177
365.5,0.6497
366.0,0.6882
366.5,0.6465
367.0,0.6296
367.5,0.6533
368.0,0.5717
368.5,0.5768
369.0,0.6229
369.5,0.6639
370.0,0.7076
370.5,0.5492
371.0,0.5867
371.5,0.7341
372.0,0.4872
372.5,0.5841
373.0,0.5941
373.5,0.3865
374.0,0.5616
374.5,0.4651
375.0,0.4521
375.5,0.6749
376.0,0.5595
376.5,0.5798
377.0,0.6138
377.5,0.7181
378.0,0.7784
378.5,0.7358
379.0,0.6072
379.5,0.5547
380.0,0.5767
380.5,0.6985
381.0,0.6998
381.5,0.5547
382.0,0.4926
382.5,0.4198
383.0,0.3886
383.5,0.3743
384.0,0.4129
384.5,0.6073
385.0,0.6022
385.5,0.5608
386.0,0.4803
386.5,0.6308
387.0,0.5242
387.5,0.5887
388.0,0.5436
388.5,0.5373
389.0,0.58
389.5,0.7024
390.0,0.7049
390.5,0.6487
391.0,0.7636
391.5,0.7788
392.0,0.656
392.5,0.5872
393.0,0.3267
393.5,0.2375
394.0,0.4832
394.5,0.6144
395.0,0.7497
395.5,0.7616
396.0,0.6602
396.5,0.3859
397.0,0.2896
397.5,0.589
398.0,0.8248
398.5,0.8526
399.0,0.923
399.5,0.92
400.0,0.9554
401.0,0.971
402.0,1.024
403.0,0.9728
404.0,0.9577
405.0,0.9576
406.0,0.9418
407.0,0.9264
408.0,0.9627
409.0,1.03
410.0,0.9001
411.0,0.9748
412.0,1.047
413.0,1.021
414.0,1.033
415.0,1.036
416.0,1.054
417.0,1.028
418.0,1.009
419.0,1.022
420.0,1.017
421.0,1.064
422.0,1.011
423.0,0.9876
424.0,1.044
425.0,1.042
426.0,1.015
427.0,0.996
428.0,0.9702
429.0,0.9186
430.0,0.8038
431.0,0.7968
432.0,1.029
433.0,1.034
434.0,0.9602
435.0,1.003
436.0,1.13
437.0,1.114
438.0,1.014
439.0,1.049
440.0,1.083
441.0,1.121
442.0,1.203
443.0,1.172
444.0,1.197
445.0,1.171
446.0,1.117
447.0,1.207
448.0,1.226
449.0,1.23
450.0,1.265
451.0,1.311
452.0,1.263
453.0,1.188
454.0,1.24
455.0,1.247
456.0,1.277
457.0,1.298
458.0,1.254
459.0,1.247
460.0,1.251
461.0,1.28
462.0,1.289
463.0,1.28
464.0,1.259
465.0,1.242
466.0,1.254
467.0,1.231
468.0,1.245
469.0,1.252
470.0,1.212
471.0,1.21
472.0,1.275
473.0,1.259
474.0,1.261
475.0,1.272
476.0,1.235
477.0,1.239
478.0,1.273
479.0,1.265
480.0,1.267
481.0,1.29
482.0,1.296
483.0,1.28
484.0,1.253
485.0,1.194
486.0,1.043
487.0,1.093
488.0,1.199
489.0,1.203
490.0,1.265
491.0,1.243
492.0,1.174
493.0,1.212
494.0,1.224
495.0,1.235
496.0,1.242
497.0,1.262
498.0,1.203
499.0,1.218
500.0,1.183
501.0,1.162
502.0,1.146
503.0,1.193
504.0,1.165
505.0,1.205
506.0,1.244
507.0,1.184
508.0,1.146
509.0,1.178
510.0,1.171
511.0,1.202
512.0,1.215
513.0,1.15
514.0,1.142
515.0,1.13
516.0,1.128
517.0,1.002
518.0,1.053
519.0,1.105
520.0,1.145
521.0,1.156
522.0,1.157
523.0,1.137
524.0,1.178
525.0,1.192
526.0,1.139
527.0,1.074
528.0,1.136
529.0,1.198
530.0,1.18
531.0,1.198
532.0,1.157
533.0,1.123
534.0,1.156
535.0,1.181
536.0,1.192
537.0,1.145
538.0,1.165
539.0,1.155
540.0,1.107
541.0,1.115
542.0,1.151
543.0,1.138
544.0,1.158
545.0,1.154
546.0,1.16
547.0,1.159
548.0,1.145
549.0,1.148
550.0,1.162
551.0,1.148
552.0,1.156
553.0,1.135
554.0,1.162
555.0,1.165
556.0,1.15
557.0,1.114
558.0,1.106
559.0,1.086
560.0,1.1
561.0,1.114
562.0,1.106
563.0,1.137
564.0,1.106
565.0,1.097
566.0,1.081
567.0,1.102
568.0,1.094
569.0,1.07
570.0,1.069
571.0,1.062
572.0,1.089
573.0,1.101
574.0,1.098
575.0,1.078
576.0,1.068
577.0,1.079
578.0,1.062
579.0,1.066
580.0,1.084
581.0,1.089
582.0,1.108
583.0,1.11
584.0,1.12
585.0,1.092
586.0,1.069
587.0,1.093
588.0,1.07
589.0,0.9527
590.0,0.9959
591.0,1.051
592.0,1.039
593.0,1.052
594.0,1.046
595.0,1.022
596.0,1.058
597.0,1.048
598.0,1.044
599.0,1.044
600.0,1.045
601.0,1.035
602.0,1.028
603.0,1.045
604.0,1.062
605.0,1.056
606.0,1.051
607.0,1.061
608.0,1.049
609.0,1.051
610.0,1.043
611.0,1.048
612.0,1.045
613.0,1.031
614.0,1.017
615.0,1.039
616.0,1.004
617.0,1.002
618.0,1.04
619.0,1.029
620.0,1.036
621.0,1.037
622.0,1.026
623.0,1.01
624.0,0.9927
625.0,0.9904
626.0,1.005
627.0,1.017
628.0,0.961
629.0,0.997
630.0,0.9744
631.0,0.9927
632.0,0.9802
633.0,1.008
634.0,0.9974
635.0,1.012
636.0,0.9983
637.0,1.014
638.0,1.023
639.0,1.011
640.0,1.001
641.0,0.9999
642.0,0.9949
643.0,1.008
644.0,1.005
645.0,1.006
646.0,0.9843
647.0,0.9755
648.0,0.9768
649.0,0.9581
650.0,0.9589
651.0,0.9997
652.0,0.9623
653.0,0.9863
654.0,0.9749
655.0,0.9407
656.0,0.8323
657.0,0.8545
658.0,0.9565
659.0,0.9628
660.0,0.9666
661.0,0.9733
662.0,0.976
663.0,0.9564
664.0,0.9666
665.0,0.9666
666.0,0.967
667.0,0.9657
668.0,0.9657
669.0,0.9804
670.0,0.976
671.0,0.9755
672.0,0.9671
673.0,0.9815
674.0,0.9776
675.0,0.9686
676.0,0.9751
677.0,0.9652
678.0,0.9678
679.0,0.9521
680.0,0.9596
681.0,0.9533
682.0,0.952
683.0,0.9502
684.0,0.9454
685.0,0.9534
686.0,0.9479
687.0,0.6772
688.0,0.7705
689.0,0.7725
690.0,0.8026
691.0,0.8361
692.0,0.8598
693.0,0.8535
694.0,0.8464
695.0,0.8757
696.0,0.8769
697.0,0.9233
698.0,0.9091
699.0,0.8921
700.0,0.8814
701.0,0.874
702.0,0.8782
703.0,0.8798
704.0,0.9051
705.0,0.9065
706.0,0.9045
707.0,0.9048
708.0,0.9069
709.0,0.9064
710.0,0.9072
711.0,0.9054
712.0,0.9019
713.0,0.8935
714.0,0.8967
715.0,0.8702
716.0,0.8712
717.0,0.7732
718.0,0.7132
719.0,0.6552
720.0,0.6876
721.0,0.7481
722.0,0.844
723.0,0.7919
724.0,0.7205
725.0,0.7114
726.0,0.7434
727.0,0.7499
728.0,0.7104
729.0,0.7306
730.0,0.773
731.0,0.7416
732.0,0.7865
733.0,0.8262
734.0,0.8441
735.0,0.8275
736.0,0.8263
737.0,0.8298
738.0,0.8384
739.0,0.822
740.0,0.8421
741.0,0.8329
742.0,0.833
743.0,0.8539
744.0,0.851
745.0,0.8508
746.0,0.8547
747.0,0.8565
748.0,0.8547
749.0,0.8449
750.0,0.8443
751.0,0.8358
752.0,0.8393
753.0,0.8435
754.0,0.8454
755.0,0.8406
756.0,0.8402
757.0,0.8414
758.0,0.8311
759.0,0.8166
760.0,0.1847
761.0,0.1081
762.0,0.4666
763.0,0.2627
764.0,0.3685
765.0,0.4668
766.0,0.5497
767.0,0.6708
768.0,0.7562
769.0,0.7681
770.0,0.7898
771.0,0.7942
772.0,0.7953
773.0,0.8007
774.0,0.7967
775.0,0.7905
776.0,0.8001
777.0,0.7895
778.0,0.7848
779.0,0.7854
780.0,0.781
781.0,0.7818
782.0,0.7866
783.0,0.7728
784.0,0.7765
785.0,0.7709
786.0,0.7795
787.0,0.7678
788.0,0.7591
789.0,0.759
790.0,0.7416
791.0,0.7454
792.0,0.7395
793.0,0.7279
794.0,0.7375
795.0,0.7507
796.0,0.7313
797.0,0.7323
798.0,0.7501
799.0,0.7461
800.0,0.734
801.0,0.7325
802.0,0.7303
803.0,0.7252
804.0,0.7258
805.0,0.7225
806.0,0.741
807.0,0.7325
808.0,0.733
809.0,0.7205
810.0,0.7156
811.0,0.7183
812.0,0.7003
813.0,0.6873
814.0,0.6134
815.0,0.6093
816.0,0.5683
817.0,0.5777
818.0,0.558
819.0,0.6162
820.0,0.5833
821.0,0.6715
822.0,0.654
823.0,0.4614
824.0,0.6386
825.0,0.6603
826.0,0.6384
827.0,0.6704
828.0,0.5777
829.0,0.6339
830.0,0.6266
831.0,0.6284
832.0,0.6109
833.0,0.6451
834.0,0.6254
835.0,0.6804
836.0,0.6554
837.0,0.682
838.0,0.6626
839.0,0.6713
840.0,0.6856
841.0,0.6766
842.0,0.6769
843.0,0.6753
844.0,0.6665
845.0,0.6881
846.0,0.6849
847.0,0.6718
848.0,0.6681
849.0,0.6492
850.0,0.6219
851.0,0.659
852.0,0.6541
853.0,0.6292
854.0,0.5436
855.0,0.5967
856.0,0.6523
857.0,0.6665
858.0,0.6618
859.0,0.6621
860.0,0.6631
861.0,0.6596
862.0,0.6698
863.0,0.6857
864.0,0.6514
865.0,0.6456
866.0,0.5805
867.0,0.6058
868.0,0.6592
869.0,0.6455
870.0,0.6639
871.0,0.6548
872.0,0.6525
873.0,0.6512
874.0,0.6434
875.0,0.6304
876.0,0.637
877.0,0.6434
878.0,0.6505
879.0,0.6405
880.0,0.6267
881.0,0.6176
882.0,0.631
883.0,0.6328
884.0,0.63
885.0,0.6347
886.0,0.6058
887.0,0.6116
888.0,0.621
889.0,0.6273
890.0,0.623
891.0,0.6214
892.0,0.6047
893.0,0.5872
894.0,0.5694
895.0,0.5417
896.0,0.5119
897.0,0.4446
898.0,0.4823
899.0,0.3729
900.0,0.4909
901.0,0.3906
902.0,0.4504
903.0,0.4575
904.0,0.5651
905.0,0.5473
906.0,0.5134
907.0,0.4245
908.0,0.4318
909.0,0.4643
910.0,0.4168
911.0,0.4405
912.0,0.4591
913.0,0.4233
914.0,0.4186
915.0,0.4532
916.0,0.3855
917.0,0.4824
918.0,0.3954
919.0,0.4895
920.0,0.4913
921.0,0.5103
922.0,0.4607
923.0,0.4927
924.0,0.4724
925.0,0.4623
926.0,0.4673
927.0,0.5189
928.0,0.3928
929.0,0.3618
930.0,0.2894
931.0,0.2733
932.0,0.202
933.0,0.167
934.0,0.09746
935.0,0.1685
936.0,0.1089
937.0,0.1109
938.0,0.1349
939.0,0.2648
940.0,0.3151
941.0,0.2426
942.0,0.2778
943.0,0.1865
944.0,0.193
945.0,0.2493
946.0,0.132
947.0,0.2517
948.0,0.1857
949.0,0.3319
950.0,0.1001
951.0,0.3259
952.0,0.1818
953.0,0.2304
954.0,0.2777
955.0,0.2325
956.0,0.2233
957.0,0.1827
958.0,0.3096
959.0,0.2512
960.0,0.2814
961.0,0.3118
962.0,0.2955
963.0,0.3372
964.0,0.3101
965.0,0.3356
966.0,0.3365
967.0,0.3354
968.0,0.4377
969.0,0.4581
970.0,0.4223
971.0,0.4782
972.0,0.4584
973.0,0.4044
974.0,0.3846
975.0,0.3971
976.0,0.3799
977.0,0.4268
978.0,0.4078
979.0,0.4254
980.0,0.401
981.0,0.4752
982.0,0.4563
983.0,0.4392
984.0,0.4875
985.0,0.4545
986.0,0.4948
987.0,0.4865
988.0,0.4856
989.0,0.4925
990.0,0.4826
991.0,0.4941
992.0,0.4969
993.0,0.4872
994.0,0.4966
995.0,0.4958
996.0,0.4938
997.0,0.4944
998.0,0.4921
999.0,0.4903
1000.0,0.4871
1001.0,0.4929
1002.0,0.4806
1003.0,0.4842
1004.0,0.4727
1005.0,0.4549
1006.0,0.473
1007.0,0.4828
1008.0,0.4805
1009.0,0.4782
1010.0,0.4763
1011.0,0.4804
1012.0,0.4765
1013.0,0.4791
1014.0,0.4758
1015.0,0.4727
1016.0,0.4706
1017.0,0.4718
1018.0,0.4699
1019.0,0.4603
1020.0,0.4675
1021.0,0.4667
1022.0,0.4633
1023.0,0.4682
1024.0,0.4627
1025.0,0.4678
1026.0,0.4659
1027.0,0.4648
1028.0,0.4638
1029.0,0.4584
1030.0,0.4614
1031.0,0.4596
1032.0,0.4582
1033.0,0.4513
1034.0,0.4513
1035.0,0.4527
1036.0,0.4551
1037.0,0.4477
1038.0,0.4497
1039.0,0.4495
1040.0,0.4477
1041.0,0.4495
1042.0,0.4464
1043.0,0.445
1044.0,0.4466
1045.0,0.4405
1046.0,0.4357
1047.0,0.4397
1048.0,0.4421
1049.0,0.4406
1050.0,0.4386
1051.0,0.438
1052.0,0.4363
1053.0,0.4329
1054.0,0.4339
1055.0,0.4342
1056.0,0.4327
1057.0,0.4314
1058.0,0.4209
1059.0,0.4214
1060.0,0.4208
1061.0,0.4204
1062.0,0.4227
1063.0,0.4186
1064.0,0.4235
1065.0,0.4206
1066.0,0.4122
1067.0,0.4175
1068.0,0.4085
1069.0,0.3958
1070.0,0.4094
1071.0,0.4153
1072.0,0.4109
1073.0,0.4049
1074.0,0.4148
1075.0,0.3954
1076.0,0.4146
1077.0,0.4079
1078.0,0.4005
1079.0,0.4077
1080.0,0.4017
1081.0,0.3894
1082.0,0.3945
1083.0,0.3955
1084.0,0.3888
1085.0,0.4024
1086.0,0.3694
1087.0,0.3797
1088.0,0.3953
1089.0,0.3845
1090.0,0.3769
1091.0,0.3943
1092.0,0.3931
1093.0,0.3372
1094.0,0.3601
1095.0,0.3508
1096.0,0.3371
1097.0,0.3839
1098.0,0.3322
1099.0,0.3459
1100.0,0.3234
1101.0,0.3269
1102.0,0.3133
1103.0,0.311
1104.0,0.3113
1105.0,0.3384
1106.0,0.2657
1107.0,0.3227
1108.0,0.2777
1109.0,0.2774
1110.0,0.3204
1111.0,0.2229
1112.0,0.2749
1113.0,0.1808
1114.0,0.2014
1115.0,0.1671
1116.0,0.137
1117.0,0.05426
1118.0,0.1477
1119.0,0.07641
1120.0,0.0963
1121.0,0.1259
1122.0,0.05567
1123.0,0.08691
1124.0,0.0734
1125.0,0.09501
1126.0,0.03576
1127.0,0.1069
1128.0,0.06687
1129.0,0.07051
1130.0,0.04764
1131.0,0.196
1132.0,0.155
1133.0,0.1019
1134.0,0.02828
1135.0,0.01049
1136.0,0.08629
1137.0,0.1936
1138.0,0.1372
1139.0,0.1977
1140.0,0.1678
1141.0,0.1303
1142.0,0.1485
1143.0,0.208
1144.0,0.07614
1145.0,0.09816
1146.0,0.1059
1147.0,0.04007
1148.0,0.1801
1149.0,0.1459
1150.0,0.08167
1151.0,0.1362
1152.0,0.1651
1153.0,0.159
1154.0,0.09568
1155.0,0.2063
1156.0,0.1871
1157.0,0.2079
1158.0,0.2056
1159.0,0.22
1160.0,0.1901
1161.0,0.2301
1162.0,0.2316
1163.0,0.3056
1164.0,0.2648
1165.0,0.2523
1166.0,0.2488
1167.0,0.2696
1168.0,0.2732
1169.0,0.2787
1170.0,0.3008
1171.0,0.2936
1172.0,0.2976
1173.0,0.3001
1174.0,0.2203
1175.0,0.2922
1176.0,0.3183
1177.0,0.3075
1178.0,0.2355
1179.0,0.3207
1180.0,0.2896
1181.0,0.2985
1182.0,0.211
1183.0,0.2932
1184.0,0.2765
1185.0,0.2682
1186.0,0.3131
1187.0,0.2997
1188.0,0.2151
1189.0,0.2796
1190.0,0.3059
1191.0,0.2931
1192.0,0.3099
1193.0,0.2979
1194.0,0.3064
1195.0,0.2917
1196.0,0.2821
1197.0,0.3055
1198.0,0.281
1199.0,0.2433
1200.0,0.2943
1201.0,0.2853
1202.0,0.2828
1203.0,0.2805
1204.0,0.2477
1205.0,0.2881
1206.0,0.3158
1207.0,0.2825
1208.0,0.2768
1209.0,0.2821
1210.0,0.2929
1211.0,0.2806
1212.0,0.2792
1213.0,0.3064
1214.0,0.2849
1215.0,0.28
1216.0,0.3053
1217.0,0.2981
1218.0,0.3029
1219.0,0.2996
1220.0,0.3031
1221.0,0.3056
1222.0,0.2982
1223.0,0.2958
1224.0,0.2946
1225.0,0.3037
1226.0,0.3052
1227.0,0.2838
1228.0,0.3063
1229.0,0.3052
1230.0,0.3005
1231.0,0.3076
1232.0,0.3058
1233.0,0.2971
1234.0,0.307
1235.0,0.3053
1236.0,0.3073
1237.0,0.3037
1238.0,0.3062
1239.0,0.3023
1240.0,0.3034
1241.0,0.3024
1242.0,0.3014
1243.0,0.2989
1244.0,0.3011
1245.0,0.3023
1246.0,0.3006
1247.0,0.2995
1248.0,0.2995
1249.0,0.3003
1250.0,0.2986
1251.0,0.295
1252.0,0.2947
1253.0,0.293
1254.0,0.2905
1255.0,0.2946
1256.0,0.2874
1257.0,0.2861
1258.0,0.2905
1259.0,0.2818
1260.0,0.283
1261.0,0.2694
1262.0,0.2625
1263.0,0.263
1264.0,0.2455
1265.0,0.2613
1266.0,0.253
1267.0,0.2564
1268.0,0.2449
1269.0,0.1641
1270.0,0.2559
1271.0,0.2682
1272.0,0.2688
1273.0,0.2662
1274.0,0.2667
1275.0,0.2702
1276.0,0.2724
1277.0,0.2737
1278.0,0.278
1279.0,0.2756
1280.0,0.272
1281.0,0.2592
1282.0,0.249
1283.0,0.2684
1284.0,0.2749
1285.0,0.2766
1286.0,0.28
1287.0,0.2764
1288.0,0.2761
1289.0,0.2687
1290.0,0.2736
1291.0,0.2771
1292.0,0.263
1293.0,0.2724
1294.0,0.2706
1295.0,0.2699
1296.0,0.2594
1297.0,0.2467
1298.0,0.2629
1299.0,0.2725
1300.0,0.2352
1301.0,0.2415
1302.0,0.2619
1303.0,0.2316
1304.0,0.2018
1305.0,0.2569
1306.0,0.2572
1307.0,0.2047
1308.0,0.2313
1309.0,0.2556
1310.0,0.201
1311.0,0.2227
1312.0,0.2173
1313.0,0.2138
1314.0,0.1929
1315.0,0.1914
1316.0,0.2199
1317.0,0.2088
1318.0,0.2252
1319.0,0.181
1320.0,0.1743
1321.0,0.2013
1322.0,0.2041
1323.0,0.1577
1324.0,0.1775
1325.0,0.217
1326.0,0.1889
1327.0,0.1808
1328.0,0.1572
1329.0,0.1215
1330.0,0.1564
1331.0,0.09859
1332.0,0.1004
1333.0,0.1387
1334.0,0.1156
1335.0,0.1571
1336.0,0.1263
1337.0,0.1129
1338.0,0.122
1339.0,0.121
1340.0,0.1166
1341.0,0.1163
1342.0,0.1219
1343.0,0.08768
1344.0,0.05231
1345.0,0.07496
1346.0,0.04066
1347.0,0.04192
1348.0,0.003401
1349.0,0.01144
1350.0,0.01134
1351.0,0.003365
1352.0,0.00112
1353.0,7.288e-05
1354.0,0.0002158
1355.0,2.834e-06
1356.0,3.632e-05
1357.0,5.491e-05
1358.0,3.292e-06
1359.0,5.945e-07
1360.0,1.713e-06
1361.0,4.158e-09
1362.0,1.611e-11
1363.0,2.545e-06
1364.0,1.091e-06
1365.0,8.53e-12
1366.0,1.01e-05
1367.0,3.939e-06
1368.0,1.499e-13
1369.0,4.182e-07
1370.0,2.398e-07
1371.0,1.658e-08
1372.0,2.172e-06
1373.0,3.411e-05
1374.0,0.000134
1375.0,0.0002431
1376.0,0.0001926
1377.0,9.181e-05
1378.0,0.0008253
1379.0,3.896e-05
1380.0,6.189e-05
1381.0,1.813e-06
1382.0,2.044e-06
1383.0,3.574e-08
1384.0,5.013e-07
1385.0,1.638e-06
1386.0,2.018e-06
1387.0,0.0001523
1388.0,3.1e-06
1389.0,0.0004324
1390.0,0.0003718
1391.0,0.0002585
1392.0,1.801e-05
1393.0,8.689e-05
1394.0,5.835e-05
1395.0,5.312e-07
1396.0,5.411e-09
1397.0,3.71e-05
1398.0,0.0009409
1399.0,0.0005965
1400.0,2.852e-09
1401.0,9.044e-09
1402.0,0.001333
1403.0,0.001743
1404.0,0.0005412
1405.0,2.947e-07
1406.0,0.001504
1407.0,0.0001285
1408.0,0.001217
1409.0,0.0004626
1410.0,0.0003453
1411.0,0.001522
1412.0,0.001937
1413.0,0.01668
1414.0,0.0002688
1415.0,0.0001371
1416.0,0.02499
1417.0,0.008369
1418.0,0.009603
1419.0,0.001531
1420.0,0.005909
1421.0,0.00643
1422.0,0.03239
1423.0,0.006495
1424.0,0.01198
1425.0,0.01791
1426.0,0.01959
1427.0,0.03435
1428.0,0.003248
1429.0,0.02643
1430.0,0.04322
1431.0,0.04703
1432.0,0.002579
1433.0,0.03054
1434.0,0.01585
1435.0,0.01692
1436.0,0.03096
1437.0,0.02372
1438.0,0.01049
1439.0,0.04136
1440.0,0.03106
1441.0,0.02447
1442.0,0.02699
1443.0,0.03268
1444.0,0.04473
1445.0,0.03597
1446.0,0.01648
1447.0,0.02592
1448.0,0.08087
1449.0,0.07116
1450.0,0.01918
1451.0,0.007937
1452.0,0.04373
1453.0,0.05688
1454.0,0.09447
