interpolation:linear
wavelength,value
280.0,1.0049999999999999e-22
280.5,3.35e-21
281.0,1.8060000000000003e-20
281.5,4.789e-19
282.0,5.335e-19
282.5,1.294e-18
283.0,4.06e-18
283.5,6.609e-18
284.0,1.09e-16
284.5,3.194e-16
285.0,5.769e-16
285.5,2.776e-15
286.0,1.114e-14
286.5,4.98e-14
287.0,1.428e-13
287.5,5.509e-13
288.0,1.942e-12
288.5,5.658e-12
289.0,1.475e-11
289.5,4.395e-11
290.0,1.214e-10
290.5,2.47e-10
291.0,5.298e-10
291.5,1.522e-09
292.0,3.079e-09
292.5,4.3e-09
293.0,9.171e-09
293.5,2.217e-08
294.0,3.46e-08
294.5,4.557e-08
295.0,7.692e-08
295.5,1.298e-07
296.0,2.472e-07
296.5,3.411e-07
297.0,4.558e-07
297.5,1.198e-06
298.0,1.852e-06
298.5,1.833e-06
299.0,3.97e-06
299.5,6.371e-06
300.0,6.858e-06
300.5,9.699e-06
301.0,1.683e-05
301.5,2.572e-05
302.0,2.148e-05
302.5,4.182e-05
303.0,7.527e-05
303.5,9.575e-05
304.0,9.24e-05
304.5,0.0001484
305.0,0.0002508
305.5,0.0003083
306.0,0.0003067
306.5,0.0004003
307.0,0.0006606
307.5,0.0009752
308.0,0.001047
308.5,0.001303
309.0,0.001538
309.5,0.002071
310.0,0.002242
310.5,0.003767
311.0,0.005023
311.5,0.004977
312.0,0.005673
312.5,0.007525
313.0,0.008538
313.5,0.007948
314.0,0.01102
314.5,0.0112
315.0,0.01508
315.5,0.0118
316.0,0.01152
316.5,0.01819
317.0,0.02254
317.5,0.02283
318.0,0.019
318.5,0.02672
319.0,0.03376
319.5,0.02487
320.0,0.02959
320.5,0.04204
321.0,0.04197
321.5,0.04069
322.0,0.03836
322.5,0.03358
323.0,0.03622
323.5,0.04879
324.0,0.05772
324.5,0.05661
325.0,0.0462
325.5,0.06339
326.0,0.08041
326.5,0.08415
327.0,0.08252
327.5,0.07807
328.0,0.06553
328.5,0.07397
329.0,0.09369
329.5,0.1082
330.0,0.1077
330.5,0.08251
331.0,0.08284
331.5,0.08697
332.0,0.09845
332.5,0.09948
333.0,0.098
333.5,0.0857
334.0,0.08732
334.5,0.1048
335.0,0.1008
335.5,0.1187
336.0,0.08214
336.5,0.09436
337.0,0.07617
337.5,0.0942
338.0,0.095
338.5,0.111
339.0,0.1101
339.5,0.1059
340.0,0.123
340.5,0.1113
341.0,0.1096
341.5,0.101
342.0,0.1209
342.5,0.1133
343.0,0.1244
343.5,0.117
344.0,0.08566
344.5,0.08713
345.0,0.1159
345.5,0.1186
346.0,0.101
346.5,0.1145
347.0,0.1227
347.5,0.09923
348.0,0.1135
348.5,0.1136
349.0,0.1056
349.5,0.1046
350.0,0.1294
350.5,0.1366
351.0,0.1219
351.5,0.1182
352.0,0.1273
352.5,0.09954
353.0,0.1256
353.5,0.1345
354.0,0.1397
354.5,0.1418
355.0,0.1413
355.5,0.1278
356.0,0.1339
356.5,0.1144
357.0,0.0945
357.5,0.1158
358.0,0.09181
358.5,0.07851
359.0,0.1098
359.5,0.1399
360.0,0.1484
360.5,0.1187
361.0,0.1084
361.5,0.125
362.0,0.1082
362.5,0.15
363.0,0.1348
363.5,0.1243
364.0,0.1522
364.5,0.1302
365.0,0.1327
365.5,0.1666
366.0,0.1768
366.5,0.1663
367.0,0.162
367.5,0.1683
368.0,0.1474
368.5,0.1488
369.0,0.1608
369.5,0.1716
370.0,0.1831
370.5,0.1422
371.0,0.1521
371.5,0.1904
372.0,0.1265
372.5,0.1518
373.0,0.1545
373.5,0.1006
374.0,0.1464
374.5,0.1213
375.0,0.118
375.5,0.1763
376.0,0.1462
376.5,0.1516
377.0,0.1607
377.5,0.1882
378.0,0.2041
378.5,0.193
379.0,0.1594
379.5,0.1456
380.0,0.1515
380.5,0.1837
381.0,0.1843
381.5,0.1463
382.0,0.1301
382.5,0.111
383.0,0.1029
383.5,0.09921
384.0,0.1095
384.5,0.1613
385.0,0.1601
385.5,0.1492
386.0,0.1279
386.5,0.1682
387.0,0.1399
387.5,0.1572
388.0,0.1453
388.5,0.1438
389.0,0.1553
389.5,0.1883
390.0,0.1891
390.5,0.1742
391.0,0.2053
391.5,0.2095
392.0,0.1766
392.5,0.1583
393.0,0.08817
393.5,0.06416
394.0,0.1307
394.5,0.1663
395.0,0.2031
395.5,0.2064
396.0,0.1791
396.5,0.1048
397.0,0.07876
397.5,0.1603
398.0,0.2246
398.5,0.2323
399.0,0.2519
399.5,0.2513
400.0,0.261
401.0,0.2623
402.0,0.2773
403.0,0.264
404.0,0.2603
405.0,0.2607
406.0,0.257
407.0,0.2534
408.0,0.2635
409.0,0.2824
410.0,0.2472
411.0,0.2683
412.0,0.2888
413.0,0.2819
414.0,0.2859
415.0,0.2872
416.0,0.2929
417.0,0.286
418.0,0.2811
419.0,0.2853
420.0,0.2844
421.0,0.298
422.0,0.2836
423.0,0.2774
424.0,0.2937
425.0,0.2936
426.0,0.2867
427.0,0.2818
428.0,0.2748
429.0,0.2609
430.0,0.2287
431.0,0.2268
432.0,0.2934
433.0,0.2954
434.0,0.2746
435.0,0.2869
436.0,0.324
437.0,0.3204
438.0,0.2922
439.0,0.3018
440.0,0.3119
441.0,0.3238
442.0,0.3476
443.0,0.3384
444.0,0.3464
445.0,0.3391
446.0,0.3245
447.0,0.3517
448.0,0.3569
449.0,0.3593
450.0,0.3699
451.0,0.384
452.0,0.3704
453.0,0.3489
454.0,0.3649
455.0,0.3673
456.0,0.3764
457.0,0.3828
458.0,0.3694
459.0,0.3677
460.0,0.3685
461.0,0.3773
462.0,0.3809
463.0,0.3784
464.0,0.3732
465.0,0.3694
466.0,0.3738
467.0,0.3667
468.0,0.3712
469.0,0.3732
470.0,0.3612
471.0,0.3611
472.0,0.3805
473.0,0.3756
474.0,0.3757
475.0,0.3782
476.0,0.366
477.0,0.3664
478.0,0.3768
479.0,0.375
480.0,0.3762
481.0,0.384
482.0,0.3869
483.0,0.3833
484.0,0.3761
485.0,0.359
486.0,0.3145
487.0,0.3303
488.0,0.3624
489.0,0.3633
490.0,0.3827
491.0,0.3766
492.0,0.3558
493.0,0.3676
494.0,0.3715
495.0,0.3749
496.0,0.3773
497.0,0.3831
498.0,0.3651
499.0,0.3693
500.0,0.358
501.0,0.3508
502.0,0.3447
503.0,0.3575
504.0,0.345
505.0,0.3601
506.0,0.3716
507.0,0.3539
508.0,0.3439
509.0,0.3544
510.0,0.3533
511.0,0.3635
512.0,0.3679
513.0,0.3483
514.0,0.3462
515.0,0.3428
516.0,0.3418
517.0,0.3039
518.0,0.3194
519.0,0.3349
520.0,0.347
521.0,0.3502
522.0,0.3501
523.0,0.3436
524.0,0.3552
525.0,0.3584
526.0,0.3421
527.0,0.3216
528.0,0.3395
529.0,0.3573
530.0,0.3519
531.0,0.3567
532.0,0.3443
533.0,0.3342
534.0,0.3444
535.0,0.3524
536.0,0.356
537.0,0.3423
538.0,0.3486
539.0,0.3456
540.0,0.3312
541.0,0.3323
542.0,0.3421
543.0,0.3393
544.0,0.3443
545.0,0.3434
546.0,0.3441
547.0,0.3447
548.0,0.341
549.0,0.3423
550.0,0.3464
551.0,0.3423
552.0,0.3447
553.0,0.3384
554.0,0.3464
555.0,0.3469
556.0,0.3422
557.0,0.3312
558.0,0.3281
559.0,0.3214
560.0,0.325
561.0,0.3287
562.0,0.3256
563.0,0.3337
564.0,0.324
565.0,0.3206
566.0,0.3154
567.0,0.3207
568.0,0.3159
569.0,0.305
570.0,0.3053
571.0,0.3043
572.0,0.3093
573.0,0.3122
574.0,0.3106
575.0,0.304
576.0,0.3013
577.0,0.3049
578.0,0.3014
579.0,0.3042
580.0,0.3126
581.0,0.3162
582.0,0.3239
583.0,0.3262
584.0,0.33
585.0,0.3225
586.0,0.3159
587.0,0.3218
588.0,0.3097
589.0,0.2661
590.0,0.2789
591.0,0.3001
592.0,0.2934
593.0,0.3016
594.0,0.2979
595.0,0.2872
596.0,0.3056
597.0,0.3004
598.0,0.3017
599.0,0.3029
600.0,0.3051
601.0,0.3039
602.0,0.3021
603.0,0.3078
604.0,0.3133
605.0,0.3121
606.0,0.3116
607.0,0.3155
608.0,0.3128
609.0,0.314
610.0,0.3126
611.0,0.3147
612.0,0.3143
613.0,0.3107
614.0,0.3072
615.0,0.3146
616.0,0.3047
617.0,0.3045
618.0,0.3167
619.0,0.3137
620.0,0.3157
621.0,0.3155
622.0,0.3113
623.0,0.3062
624.0,0.3014
625.0,0.3007
626.0,0.3049
627.0,0.3066
628.0,0.2664
629.0,0.2923
630.0,0.2848
631.0,0.2981
632.0,0.2959
633.0,0.3077
634.0,0.307
635.0,0.313
636.0,0.3101
637.0,0.3162
638.0,0.3209
639.0,0.3182
640.0,0.3161
641.0,0.3166
642.0,0.3161
643.0,0.3205
644.0,0.3203
645.0,0.3204
646.0,0.3105
647.0,0.3011
648.0,0.3019
649.0,0.2951
650.0,0.3038
651.0,0.3183
652.0,0.298
653.0,0.3146
654.0,0.3116
655.0,0.2964
656.0,0.2652
657.0,0.2729
658.0,0.3082
659.0,0.3113
660.0,0.3132
661.0,0.3158
662.0,0.3152
663.0,0.3094
664.0,0.3151
665.0,0.3169
666.0,0.3178
667.0,0.3182
668.0,0.3193
669.0,0.3247
670.0,0.3237
671.0,0.3241
672.0,0.3216
673.0,0.3268
674.0,0.326
675.0,0.3233
676.0,0.3259
677.0,0.323
678.0,0.3242
679.0,0.3192
680.0,0.322
681.0,0.32
682.0,0.3196
683.0,0.3191
684.0,0.3175
685.0,0.3206
686.0,0.3182
687.0,0.1323
688.0,0.1867
689.0,0.1886
690.0,0.2102
691.0,0.2364
692.0,0.258
693.0,0.2553
694.0,0.2558
695.0,0.277
696.0,0.2781
697.0,0.3071
698.0,0.302
699.0,0.2864
700.0,0.2825
701.0,0.2761
702.0,0.2814
703.0,0.283
704.0,0.2971
705.0,0.2974
706.0,0.299
707.0,0.3001
708.0,0.3005
709.0,0.3045
710.0,0.3025
711.0,0.3034
712.0,0.3043
713.0,0.2995
714.0,0.3012
715.0,0.2881
716.0,0.2875
717.0,0.2196
718.0,0.1998
719.0,0.1807
720.0,0.1861
721.0,0.2217
722.0,0.2717
723.0,0.2442
724.0,0.209
725.0,0.2024
726.0,0.2126
727.0,0.2231
728.0,0.2006
729.0,0.2182
730.0,0.228
731.0,0.2166
732.0,0.2427
733.0,0.2665
734.0,0.2763
735.0,0.2687
736.0,0.2677
737.0,0.269
738.0,0.2815
739.0,0.2763
740.0,0.2859
741.0,0.2845
742.0,0.2864
743.0,0.2942
744.0,0.2943
745.0,0.2953
746.0,0.2966
747.0,0.2975
748.0,0.297
749.0,0.2937
750.0,0.2936
751.0,0.2906
752.0,0.292
753.0,0.2936
754.0,0.2943
755.0,0.2926
756.0,0.2926
757.0,0.293
758.0,0.2891
759.0,0.2776
760.0,0.00727
761.0,0.002481
762.0,0.0674
763.0,0.01607
764.0,0.03657
765.0,0.06717
766.0,0.109
767.0,0.1732
768.0,0.2354
769.0,0.2493
770.0,0.2682
771.0,0.2752
772.0,0.2773
773.0,0.2796
774.0,0.2786
775.0,0.2767
776.0,0.2802
777.0,0.2766
778.0,0.2749
779.0,0.2751
780.0,0.2737
781.0,0.274
782.0,0.2758
783.0,0.2712
784.0,0.2726
785.0,0.2702
786.0,0.2729
787.0,0.2638
788.0,0.2587
789.0,0.2585
790.0,0.2463
791.0,0.2539
792.0,0.2529
793.0,0.2483
794.0,0.258
795.0,0.2608
796.0,0.245
797.0,0.2445
798.0,0.2595
799.0,0.2565
800.0,0.2502
801.0,0.2475
802.0,0.2466
803.0,0.2436
804.0,0.2449
805.0,0.2465
806.0,0.2575
807.0,0.2535
808.0,0.254
809.0,0.2462
810.0,0.2424
811.0,0.2393
812.0,0.2264
813.0,0.22
814.0,0.1803
815.0,0.1804
816.0,0.1659
817.0,0.1694
818.0,0.1601
819.0,0.1901
820.0,0.1753
821.0,0.2225
822.0,0.2133
823.0,0.1197
824.0,0.2001
825.0,0.2189
826.0,0.2046
827.0,0.2219
828.0,0.1712
829.0,0.2046
830.0,0.2008
831.0,0.2014
832.0,0.1922
833.0,0.212
834.0,0.1996
835.0,0.2321
836.0,0.213
837.0,0.2327
838.0,0.2209
839.0,0.2295
840.0,0.2356
841.0,0.2304
842.0,0.2339
843.0,0.237
844.0,0.232
845.0,0.2421
846.0,0.2416
847.0,0.238
848.0,0.2351
849.0,0.2285
850.0,0.219
851.0,0.2304
852.0,0.2295
853.0,0.2221
854.0,0.1908
855.0,0.211
856.0,0.23
857.0,0.2361
858.0,0.2339
859.0,0.2348
860.0,0.2356
861.0,0.2342
862.0,0.2381
863.0,0.2437
864.0,0.2316
865.0,0.2297
866.0,0.2066
867.0,0.2156
868.0,0.2347
869.0,0.2299
870.0,0.2365
871.0,0.2332
872.0,0.2325
873.0,0.2321
874.0,0.2293
875.0,0.2246
876.0,0.2269
877.0,0.2293
878.0,0.2315
879.0,0.228
880.0,0.2231
881.0,0.2191
882.0,0.2235
883.0,0.225
884.0,0.2237
885.0,0.2253
886.0,0.2122
887.0,0.2165
888.0,0.2187
889.0,0.2231
890.0,0.2186
891.0,0.2196
892.0,0.2098
893.0,0.2003
894.0,0.1862
895.0,0.1674
896.0,0.1557
897.0,0.1247
898.0,0.1401
899.0,0.09678
900.0,0.1495
901.0,0.1014
902.0,0.1317
903.0,0.1282
904.0,0.1844
905.0,0.1753
906.0,0.1613
907.0,0.1157
908.0,0.1214
909.0,0.1368
910.0,0.1104
911.0,0.1265
912.0,0.132
913.0,0.1115
914.0,0.1129
915.0,0.1209
916.0,0.1013
917.0,0.1388
918.0,0.1028
919.0,0.1452
920.0,0.1558
921.0,0.1609
922.0,0.136
923.0,0.1565
924.0,0.1366
925.0,0.1343
926.0,0.134
927.0,0.1577
928.0,0.09346
929.0,0.07981
930.0,0.05392
931.0,0.0507
932.0,0.02883
933.0,0.02058
934.0,0.006315
935.0,0.02315
936.0,0.01083
937.0,0.01094
938.0,0.01462
939.0,0.04888
940.0,0.06513
941.0,0.04155
942.0,0.05161
943.0,0.02852
944.0,0.03569
945.0,0.04456
946.0,0.01579
947.0,0.04279
948.0,0.03085
949.0,0.06493
950.0,0.009311
951.0,0.06444
952.0,0.02609
953.0,0.03928
954.0,0.05481
955.0,0.04053
956.0,0.04765
957.0,0.02585
958.0,0.0742
959.0,0.04971
960.0,0.05583
961.0,0.07006
962.0,0.06612
963.0,0.08299
964.0,0.0742
965.0,0.08202
966.0,0.08174
967.0,0.08018
968.0,0.1364
969.0,0.1374
970.0,0.1241
971.0,0.155
972.0,0.1451
973.0,0.1134
974.0,0.107
975.0,0.1147
976.0,0.1015
977.0,0.1315
978.0,0.1183
979.0,0.1272
980.0,0.1181
981.0,0.1544
982.0,0.1428
983.0,0.1346
984.0,0.1654
985.0,0.1418
986.0,0.1725
987.0,0.1651
988.0,0.1651
989.0,0.1748
990.0,0.164
991.0,0.1748
992.0,0.1763
993.0,0.1681
994.0,0.1768
995.0,0.1773
996.0,0.1757
997.0,0.1763
998.0,0.1752
999.0,0.1748
1000.0,0.1724
1001.0,0.1759
1002.0,0.1662
1003.0,0.1725
1004.0,0.167
1005.0,0.1626
1006.0,0.1681
1007.0,0.1721
1008.0,0.1703
1009.0,0.1685
1010.0,0.1673
1011.0,0.1713
1012.0,0.169
1013.0,0.1712
1014.0,0.17
1015.0,0.1687
1016.0,0.1679
1017.0,0.1681
1018.0,0.1681
1019.0,0.1626
1020.0,0.1669
1021.0,0.167
1022.0,0.165
1023.0,0.1667
1024.0,0.1626
1025.0,0.1672
1026.0,0.166
1027.0,0.1657
1028.0,0.1652
1029.0,0.1631
1030.0,0.1649
1031.0,0.1639
1032.0,0.1637
1033.0,0.1612
1034.0,0.1612
1035.0,0.1617
1036.0,0.1624
1037.0,0.1598
1038.0,0.1604
1039.0,0.1602
1040.0,0.1595
1041.0,0.16
1042.0,0.1588
1043.0,0.1582
1044.0,0.1587
1045.0,0.1564
1046.0,0.1546
1047.0,0.1558
1048.0,0.1565
1049.0,0.1558
1050.0,0.1549
1051.0,0.1545
1052.0,0.1537
1053.0,0.1522
1054.0,0.1523
1055.0,0.1521
1056.0,0.1512
1057.0,0.1505
1058.0,0.1465
1059.0,0.1464
1060.0,0.146
1061.0,0.1457
1062.0,0.1461
1063.0,0.1444
1064.0,0.1462
1065.0,0.1445
1066.0,0.1422
1067.0,0.1438
1068.0,0.1402
1069.0,0.1363
1070.0,0.1405
1071.0,0.1443
1072.0,0.1414
1073.0,0.1396
1074.0,0.1451
1075.0,0.1335
1076.0,0.1447
1077.0,0.1397
1078.0,0.1358
1079.0,0.1432
1080.0,0.1376
1081.0,0.1308
1082.0,0.1368
1083.0,0.1383
1084.0,0.1297
1085.0,0.1382
1086.0,0.1204
1087.0,0.128
1088.0,0.1375
1089.0,0.1287
1090.0,0.124
1091.0,0.1359
1092.0,0.1362
1093.0,0.1046
1094.0,0.1233
1095.0,0.1091
1096.0,0.1017
1097.0,0.1332
1098.0,0.09828
1099.0,0.104
1100.0,0.09285
1101.0,0.09561
1102.0,0.08829
1103.0,0.08535
1104.0,0.08583
1105.0,0.1007
1106.0,0.06127
1107.0,0.0928
1108.0,0.06929
1109.0,0.07062
1110.0,0.08955
1111.0,0.04828
1112.0,0.07061
1113.0,0.03378
1114.0,0.03797
1115.0,0.03043
1116.0,0.01922
1117.0,0.003556
1118.0,0.02183
1119.0,0.007243
1120.0,0.008535
1121.0,0.0129
1122.0,0.003106
1123.0,0.007823
1124.0,0.006554
1125.0,0.00943
1126.0,0.001304
1127.0,0.01084
1128.0,0.003976
1129.0,0.004395
1130.0,0.002662
1131.0,0.02922
1132.0,0.02103
1133.0,0.008949
1134.0,0.0009784
1135.0,0.0004482
1136.0,0.006184
1137.0,0.02693
1138.0,0.01792
1139.0,0.03837
1140.0,0.02746
1141.0,0.01721
1142.0,0.02168
1143.0,0.03622
1144.0,0.008038
1145.0,0.008541
1146.0,0.009178
1147.0,0.001419
1148.0,0.03031
1149.0,0.02114
1150.0,0.009787
1151.0,0.01783
1152.0,0.02558
1153.0,0.02804
1154.0,0.008844
1155.0,0.03993
1156.0,0.03342
1157.0,0.04345
1158.0,0.04275
1159.0,0.04845
1160.0,0.03991
1161.0,0.05656
1162.0,0.05592
1163.0,0.09041
1164.0,0.07234
1165.0,0.06305
1166.0,0.06714
1167.0,0.07559
1168.0,0.07542
1169.0,0.07842
1170.0,0.09
1171.0,0.08773
1172.0,0.09272
1173.0,0.08992
1174.0,0.05416
1175.0,0.09107
1176.0,0.107
1177.0,0.09788
1178.0,0.06563
1179.0,0.1077
1180.0,0.08884
1181.0,0.09187
1182.0,0.05418
1183.0,0.09189
1184.0,0.08288
1185.0,0.07702
1186.0,0.1013
1187.0,0.09319
1188.0,0.0532
1189.0,0.0864
1190.0,0.09989
1191.0,0.08808
1192.0,0.1019
1193.0,0.09539
1194.0,0.09986
1195.0,0.08985
1196.0,0.08416
1197.0,0.1016
1198.0,0.09125
1199.0,0.0685
1200.0,0.09421
1201.0,0.08734
1202.0,0.09007
1203.0,0.0871
1204.0,0.07269
1205.0,0.09453
1206.0,0.1088
1207.0,0.08834
1208.0,0.08977
1209.0,0.09193
1210.0,0.09797
1211.0,0.0902
1212.0,0.08358
1213.0,0.1025
1214.0,0.08748
1215.0,0.08546
1216.0,0.1029
1217.0,0.09846
1218.0,0.1019
1219.0,0.09945
1220.0,0.1022
1221.0,0.1045
1222.0,0.101
1223.0,0.09919
1224.0,0.09649
1225.0,0.1033
1226.0,0.1056
1227.0,0.0923
1228.0,0.1072
1229.0,0.1056
1230.0,0.1029
1231.0,0.1091
1232.0,0.1083
1233.0,0.1002
1234.0,0.11
1235.0,0.1086
1236.0,0.1099
1237.0,0.1067
1238.0,0.1096
1239.0,0.1081
1240.0,0.1088
1241.0,0.1071
1242.0,0.1079
1243.0,0.1071
1244.0,0.1075
1245.0,0.1082
1246.0,0.1076
1247.0,0.1068
1248.0,0.1061
1249.0,0.107
1250.0,0.106
1251.0,0.1039
1252.0,0.1049
1253.0,0.1023
1254.0,0.1
1255.0,0.1043
1256.0,0.09822
1257.0,0.09704
1258.0,0.1014
1259.0,0.0929
1260.0,0.09397
1261.0,0.08299
1262.0,0.07762
1263.0,0.07762
1264.0,0.06545
1265.0,0.07723
1266.0,0.07057
1267.0,0.07441
1268.0,0.0665
1269.0,0.02211
1270.0,0.07311
1271.0,0.08349
1272.0,0.08431
1273.0,0.08277
1274.0,0.08392
1275.0,0.08615
1276.0,0.08814
1277.0,0.09028
1278.0,0.09423
1279.0,0.09334
1280.0,0.09226
1281.0,0.08913
1282.0,0.0877
1283.0,0.09407
1284.0,0.096
1285.0,0.09696
1286.0,0.09924
1287.0,0.09588
1288.0,0.09648
1289.0,0.08979
1290.0,0.09578
1291.0,0.09779
1292.0,0.08551
1293.0,0.09445
1294.0,0.09354
1295.0,0.09077
1296.0,0.08297
1297.0,0.07597
1298.0,0.08751
1299.0,0.0951
1300.0,0.07128
1301.0,0.07488
1302.0,0.08748
1303.0,0.07111
1304.0,0.05279
1305.0,0.08525
1306.0,0.08413
1307.0,0.05677
1308.0,0.07262
1309.0,0.08186
1310.0,0.05482
1311.0,0.06768
1312.0,0.06498
1313.0,0.06139
1314.0,0.05196
1315.0,0.04971
1316.0,0.06505
1317.0,0.06032
1318.0,0.0691
1319.0,0.04469
1320.0,0.04488
1321.0,0.05574
1322.0,0.05445
1323.0,0.03376
1324.0,0.04428
1325.0,0.06278
1326.0,0.04941
1327.0,0.04574
1328.0,0.03678
1329.0,0.02177
1330.0,0.03163
1331.0,0.01351
1332.0,0.01528
1333.0,0.02229
1334.0,0.02298
1335.0,0.03277
1336.0,0.02244
1337.0,0.01933
1338.0,0.02043
1339.0,0.02097
1340.0,0.0221
1341.0,0.01748
1342.0,0.01898
1343.0,0.007751
1344.0,0.00512
1345.0,0.006797
1346.0,0.001551
1347.0,0.001326
1348.0,2.136e-05
1349.0,9.888e-05
1350.0,0.0001213
1351.0,9.482e-06
1352.0,1.121e-06
1353.0,5.128e-08
1354.0,1.957e-07
1355.0,1.366e-09
1356.0,2.488e-08
1357.0,3.771e-08
1358.0,1.605e-09
1359.0,2.014e-10
1360.0,7.287e-10
1361.0,8.141e-13
1362.0,2.227e-15
1363.0,9.788e-10
1364.0,4.042e-10
1365.0,7.775e-16
1366.0,4.242e-09
1367.0,1.734e-09
1368.0,6.004e-18
1369.0,1.489e-10
1370.0,7.332e-11
1371.0,4.156e-12
1372.0,9.408e-10
1373.0,1.915e-08
1374.0,9.201e-08
1375.0,1.63e-07
1376.0,1.698e-07
1377.0,7.551e-08
1378.0,7.269e-07
1379.0,3.229e-08
1380.0,4.133e-08
1381.0,1.067e-09
1382.0,8.239e-10
1383.0,1.231e-11
1384.0,1.613e-10
1385.0,7.781e-10
1386.0,7.257e-10
1387.0,8.867e-08
1388.0,1.805e-09
1389.0,3.209e-07
1390.0,2.696e-07
1391.0,1.803e-07
1392.0,1.187e-08
1393.0,6.641e-08
1394.0,3.016e-08
1395.0,2.202e-10
1396.0,1.06e-12
1397.0,2.492e-08
1398.0,7.5e-07
1399.0,4.84e-07
1400.0,4.532e-13
1401.0,1.88e-12
1402.0,3.266e-06
1403.0,2.964e-06
1404.0,7.651e-07
1405.0,1.04e-10
1406.0,1.489e-06
1407.0,2.345e-07
1408.0,1.274e-06
1409.0,3.469e-07
1410.0,3.633e-07
1411.0,2.767e-06
1412.0,5.416e-06
1413.0,0.0001403
1414.0,3.083e-07
1415.0,1.276e-07
1416.0,0.0006915
1417.0,0.0001081
1418.0,6.771e-05
1419.0,9.101e-06
1420.0,4.057e-05
