interpolation:linear
wavelength,value
280.0,1.684e-20
280.5,4.952e-19
281.0,2.56e-18
281.5,4.171e-19
282.0,1.587e-18
282.5,4.36e-18
283.0,1.433e-17
283.5,2.356e-17
284.0,3.746e-16
284.5,1.064e-15
285.0,1.927e-15
285.5,1.07e-14
286.0,4.42e-14
286.5,2.029e-13
287.0,5.847e-13
287.5,2.24e-12
288.0,6.228e-12
288.5,2.352e-11
289.0,7.494e-11
289.5,2.656e-10
290.0,8.271e-10
290.5,1.846e-09
291.0,4.382e-09
291.5,1.418e-08
292.0,3.797e-08
292.5,6.024e-08
293.0,1.515e-07
293.5,4.621e-07
294.0,8.562e-07
294.5,1.141e-06
295.0,2.284e-06
295.5,5.974e-06
296.0,1.168e-05
296.5,1.654e-05
297.0,2.261e-05
297.5,6.154e-05
298.0,9.818e-05
298.5,9.974e-05
299.0,0.000222
299.5,0.0003742
300.0,0.0004157
300.5,0.0006085
301.0,0.001121
301.5,0.001824
302.0,0.00158
302.5,0.003026
303.0,0.005291
303.5,0.006546
304.0,0.006071
304.5,0.00875
305.0,0.01263
305.5,0.01403
306.0,0.01342
306.5,0.01638
307.0,0.02326
307.5,0.02966
308.0,0.03112
308.5,0.036
309.0,0.03497
309.5,0.03889
310.0,0.03855
310.5,0.06203
311.0,0.077
311.5,0.07398
312.0,0.07219
312.5,0.08642
313.0,0.09293
313.5,0.09096
314.0,0.1115
314.5,0.0963
315.0,0.1259
315.5,0.1067
316.0,0.09122
316.5,0.1286
317.0,0.1597
317.5,0.1671
318.0,0.1287
318.5,0.1559
319.0,0.1827
319.5,0.1519
320.0,0.1841
320.5,0.2247
321.0,0.1956
321.5,0.1871
322.0,0.2043
322.5,0.1775
323.0,0.174
323.5,0.2106
324.0,0.2452
324.5,0.2506
325.0,0.2183
325.5,0.2771
326.0,0.3376
326.5,0.3351
327.0,0.3351
327.5,0.325
328.0,0.2927
328.5,0.3034
329.0,0.3592
329.5,0.4064
330.0,0.411
330.5,0.3318
331.0,0.3391
331.5,0.3424
332.0,0.3665
332.5,0.361
333.0,0.3608
333.5,0.3288
334.0,0.3373
334.5,0.3861
335.0,0.3612
335.5,0.4219
336.0,0.2919
336.5,0.3426
337.0,0.282
337.5,0.3512
338.0,0.3407
338.5,0.3931
339.0,0.389
339.5,0.3743
340.0,0.4399
340.5,0.3963
341.0,0.3866
341.5,0.3548
342.0,0.424
342.5,0.3967
343.0,0.4363
343.5,0.4109
344.0,0.3037
344.5,0.3068
345.0,0.4059
345.5,0.4143
346.0,0.3521
346.5,0.3986
347.0,0.428
347.5,0.3461
348.0,0.3945
348.5,0.3943
349.0,0.3657
349.5,0.3621
350.0,0.4479
350.5,0.4725
351.0,0.4221
351.5,0.4104
352.0,0.4407
352.5,0.3439
353.0,0.4331
353.5,0.4631
354.0,0.4808
354.5,0.4876
355.0,0.486
355.5,0.4391
356.0,0.4594
356.5,0.3923
357.0,0.3241
357.5,0.3968
358.0,0.3145
358.5,0.2688
359.0,0.376
359.5,0.4792
360.0,0.508
360.5,0.406
361.0,0.3701
361.5,0.4262
362.0,0.3685
362.5,0.51
363.0,0.4581
363.5,0.422
364.0,0.5161
364.5,0.4412
365.0,0.4493
365.5,0.564
366.0,0.5975
366.5,0.5615
367.0,0.5468
367.5,0.5675
368.0,0.4966
368.5,0.5012
369.0,0.5413
369.5,0.577
370.0,0.6151
370.5,0.4774
371.0,0.5101
371.5,0.6383
372.0,0.4237
372.5,0.508
373.0,0.5168
373.5,0.3363
374.0,0.4887
374.5,0.4047
375.0,0.3934
375.5,0.5874
376.0,0.487
376.5,0.5047
377.0,0.5344
377.5,0.6253
378.0,0.6778
378.5,0.6407
379.0,0.5288
379.5,0.4831
380.0,0.5023
380.5,0.6085
381.0,0.6098
381.5,0.4834
382.0,0.4293
382.5,0.366
383.0,0.3389
383.5,0.3264
384.0,0.3601
384.5,0.5297
385.0,0.5253
385.5,0.4892
386.0,0.4191
386.5,0.5505
387.0,0.4575
387.5,0.5139
388.0,0.4745
388.5,0.4691
389.0,0.5064
389.5,0.6134
390.0,0.6156
390.5,0.5666
391.0,0.667
391.5,0.6804
392.0,0.5731
392.5,0.5131
393.0,0.2855
393.5,0.2076
394.0,0.4224
394.5,0.5371
395.0,0.6554
395.5,0.6658
396.0,0.5773
396.5,0.3375
397.0,0.2533
397.5,0.5152
398.0,0.7215
398.5,0.7458
399.0,0.8077
399.5,0.8051
400.0,0.836
401.0,0.8489
402.0,0.8957
403.0,0.851
404.0,0.8379
405.0,0.8379
406.0,0.8243
407.0,0.8111
408.0,0.8429
409.0,0.9022
410.0,0.7884
411.0,0.854
412.0,0.9172
413.0,0.8946
414.0,0.9056
415.0,0.908
416.0,0.9239
417.0,0.9012
418.0,0.8846
419.0,0.8963
420.0,0.8924
421.0,0.9336
422.0,0.8874
423.0,0.8669
424.0,0.917
425.0,0.9153
426.0,0.8915
427.0,0.8749
428.0,0.8523
429.0,0.8072
430.0,0.7065
431.0,0.7003
432.0,0.9042
433.0,0.9091
434.0,0.8442
435.0,0.8818
436.0,0.9935
437.0,0.98
438.0,0.8924
439.0,0.9232
440.0,0.9525
441.0,0.987
442.0,1.059
443.0,1.031
444.0,1.053
445.0,1.031
446.0,0.9835
447.0,1.063
448.0,1.08
449.0,1.084
450.0,1.114
451.0,1.156
452.0,1.113
453.0,1.047
454.0,1.093
455.0,1.1
456.0,1.126
457.0,1.145
458.0,1.106
459.0,1.1
460.0,1.103
461.0,1.128
462.0,1.137
463.0,1.129
464.0,1.11
465.0,1.096
466.0,1.106
467.0,1.086
468.0,1.099
469.0,1.105
470.0,1.07
471.0,1.068
472.0,1.126
473.0,1.111
474.0,1.113
475.0,1.123
476.0,1.089
477.0,1.093
478.0,1.123
479.0,1.116
480.0,1.118
481.0,1.138
482.0,1.144
483.0,1.13
484.0,1.107
485.0,1.054
486.0,0.9216
487.0,0.9657
488.0,1.059
489.0,1.063
490.0,1.118
491.0,1.099
492.0,1.037
493.0,1.071
494.0,1.082
495.0,1.091
496.0,1.098
497.0,1.115
498.0,1.063
499.0,1.077
500.0,1.045
501.0,1.026
502.0,1.012
503.0,1.054
504.0,1.028
505.0,1.064
506.0,1.098
507.0,1.045
508.0,1.012
509.0,1.04
510.0,1.035
511.0,1.062
512.0,1.074
513.0,1.016
514.0,1.009
515.0,0.9992
516.0,0.9968
517.0,0.8856
518.0,0.9311
519.0,0.9766
520.0,1.012
521.0,1.022
522.0,1.023
523.0,1.004
524.0,1.041
525.0,1.053
526.0,1.006
527.0,0.9482
528.0,1.003
529.0,1.057
530.0,1.042
531.0,1.058
532.0,1.021
533.0,0.9915
534.0,1.021
535.0,1.043
536.0,1.052
537.0,1.011
538.0,1.029
539.0,1.02
540.0,0.9779
541.0,0.9847
542.0,1.016
543.0,1.005
544.0,1.022
545.0,1.019
546.0,1.024
547.0,1.023
548.0,1.011
549.0,1.014
550.0,1.026
551.0,1.013
552.0,1.02
553.0,1.002
554.0,1.026
555.0,1.028
556.0,1.015
557.0,0.9836
558.0,0.9763
559.0,0.9582
560.0,0.9703
561.0,0.983
562.0,0.976
563.0,1.003
564.0,0.9757
565.0,0.9674
566.0,0.9534
567.0,0.9716
568.0,0.9634
569.0,0.9414
570.0,0.941
571.0,0.9351
572.0,0.9581
573.0,0.9685
574.0,0.9655
575.0,0.9477
576.0,0.939
577.0,0.9491
578.0,0.9347
579.0,0.938
580.0,0.9552
581.0,0.9597
582.0,0.9774
583.0,0.9795
584.0,0.9877
585.0,0.9635
586.0,0.9437
587.0,0.9646
588.0,0.9422
589.0,0.8369
590.0,0.8751
591.0,0.9247
592.0,0.9138
593.0,0.9263
594.0,0.9203
595.0,0.8983
596.0,0.932
597.0,0.9223
598.0,0.9195
599.0,0.92
600.0,0.921
601.0,0.9131
602.0,0.9069
603.0,0.9217
604.0,0.9369
605.0,0.9319
606.0,0.9279
607.0,0.9369
608.0,0.9264
609.0,0.9279
610.0,0.921
611.0,0.9258
612.0,0.9229
613.0,0.9112
614.0,0.8987
615.0,0.9181
616.0,0.8877
617.0,0.8858
618.0,0.9198
619.0,0.9105
620.0,0.9162
621.0,0.9173
622.0,0.9067
623.0,0.893
624.0,0.8776
625.0,0.8756
626.0,0.8886
627.0,0.8989
628.0,0.844
629.0,0.8792
630.0,0.8591
631.0,0.8769
632.0,0.8662
633.0,0.8919
634.0,0.8827
635.0,0.8962
636.0,0.8841
637.0,0.8984
638.0,0.9067
639.0,0.8963
640.0,0.8874
641.0,0.8867
642.0,0.8825
643.0,0.8944
644.0,0.8913
645.0,0.8928
646.0,0.8725
647.0,0.8634
648.0,0.8643
649.0,0.8477
650.0,0.8502
651.0,0.8867
652.0,0.8515
653.0,0.8749
654.0,0.865
655.0,0.8337
656.0,0.7383
657.0,0.7581
658.0,0.8491
659.0,0.8549
660.0,0.8584
661.0,0.8644
662.0,0.8665
663.0,0.8492
664.0,0.8588
665.0,0.8592
666.0,0.8597
667.0,0.8587
668.0,0.859
669.0,0.8721
670.0,0.8683
671.0,0.868
672.0,0.8605
673.0,0.8734
674.0,0.8701
675.0,0.8621
676.0,0.8679
677.0,0.8593
678.0,0.8617
679.0,0.8477
680.0,0.8544
681.0,0.8488
682.0,0.8477
683.0,0.8461
684.0,0.8419
685.0,0.849
686.0,0.844
687.0,0.5797
688.0,0.6701
689.0,0.6723
690.0,0.702
691.0,0.7354
692.0,0.7594
693.0,0.7535
694.0,0.7472
695.0,0.7757
696.0,0.7768
697.0,0.8214
698.0,0.8087
699.0,0.7913
700.0,0.7818
701.0,0.7745
702.0,0.7791
703.0,0.7805
704.0,0.8043
705.0,0.8055
706.0,0.8044
707.0,0.8048
708.0,0.8066
709.0,0.807
710.0,0.8073
711.0,0.806
712.0,0.8033
713.0,0.7955
714.0,0.7984
715.0,0.7739
716.0,0.7746
717.0,0.6789
718.0,0.6246
719.0,0.5729
720.0,0.6007
721.0,0.6587
722.0,0.7489
723.0,0.6997
724.0,0.6331
725.0,0.624
726.0,0.6527
727.0,0.6603
728.0,0.6227
729.0,0.6435
730.0,0.681
731.0,0.6522
732.0,0.695
733.0,0.7332
734.0,0.7499
735.0,0.7347
736.0,0.7337
737.0,0.7367
738.0,0.7464
739.0,0.7317
740.0,0.7502
741.0,0.7425
742.0,0.7429
743.0,0.7617
744.0,0.7593
745.0,0.7593
746.0,0.7628
747.0,0.7644
748.0,0.7628
749.0,0.7541
750.0,0.7536
751.0,0.746
752.0,0.7491
753.0,0.7529
754.0,0.7546
755.0,0.7504
756.0,0.75
757.0,0.7511
758.0,0.7418
759.0,0.7277
760.0,0.1388
761.0,0.07636
762.0,0.3909
763.0,0.2057
764.0,0.3001
765.0,0.391
766.0,0.4714
767.0,0.5863
768.0,0.6697
769.0,0.6823
770.0,0.7038
771.0,0.7087
772.0,0.71
773.0,0.7149
774.0,0.7114
775.0,0.7059
776.0,0.7145
777.0,0.7051
778.0,0.7008
779.0,0.7014
780.0,0.6974
781.0,0.6981
782.0,0.7025
783.0,0.6902
784.0,0.6935
785.0,0.6884
786.0,0.6961
787.0,0.6847
788.0,0.6765
789.0,0.6763
790.0,0.6594
791.0,0.664
792.0,0.659
793.0,0.6485
794.0,0.6585
795.0,0.6699
796.0,0.6507
797.0,0.6516
798.0,0.6692
799.0,0.6652
800.0,0.654
801.0,0.6523
802.0,0.6504
803.0,0.6456
804.0,0.6463
805.0,0.6439
806.0,0.6613
807.0,0.6535
808.0,0.654
809.0,0.6422
810.0,0.6374
811.0,0.6389
812.0,0.6216
813.0,0.6092
814.0,0.5392
815.0,0.5358
816.0,0.4991
817.0,0.5079
818.0,0.4896
819.0,0.5446
820.0,0.514
821.0,0.5969
822.0,0.5804
823.0,0.4009
824.0,0.5649
825.0,0.5867
826.0,0.5656
827.0,0.5956
828.0,0.5085
829.0,0.5619
830.0,0.5549
831.0,0.5568
832.0,0.5403
833.0,0.5731
834.0,0.5539
835.0,0.6061
836.0,0.5817
837.0,0.6077
838.0,0.5895
839.0,0.5984
840.0,0.6113
841.0,0.6029
842.0,0.6038
843.0,0.603
844.0,0.5949
845.0,0.6146
846.0,0.6119
847.0,0.6003
848.0,0.5968
849.0,0.5798
850.0,0.5555
851.0,0.5884
852.0,0.5841
853.0,0.5621
854.0,0.4855
855.0,0.5332
856.0,0.5827
857.0,0.5956
858.0,0.5913
859.0,0.5917
860.0,0.5927
861.0,0.5895
862.0,0.5987
863.0,0.6129
864.0,0.5822
865.0,0.5771
866.0,0.5189
867.0,0.5415
868.0,0.5893
869.0,0.577
870.0,0.5935
871.0,0.5854
872.0,0.5833
873.0,0.5822
874.0,0.5752
875.0,0.5636
876.0,0.5695
877.0,0.5752
878.0,0.5815
879.0,0.5725
880.0,0.5603
881.0,0.5519
882.0,0.5639
883.0,0.5656
884.0,0.563
885.0,0.5673
886.0,0.5409
887.0,0.5465
888.0,0.5546
889.0,0.5607
890.0,0.5563
891.0,0.5552
892.0,0.5395
893.0,0.5231
894.0,0.5055
895.0,0.4787
896.0,0.4513
897.0,0.3891
898.0,0.4238
899.0,0.324
900.0,0.4331
901.0,0.3395
902.0,0.3963
903.0,0.4009
904.0,0.5017
905.0,0.4849
906.0,0.4541
907.0,0.371
908.0,0.378
909.0,0.4086
910.0,0.363
911.0,0.3858
912.0,0.403
913.0,0.3684
914.0,0.365
915.0,0.3956
916.0,0.3353
917.0,0.4238
918.0,0.3438
919.0,0.431
920.0,0.4345
921.0,0.4518
922.0,0.4051
923.0,0.4364
924.0,0.4152
925.0,0.4062
926.0,0.4107
927.0,0.4587
928.0,0.3394
929.0,0.3106
930.0,0.2451
931.0,0.2321
932.0,0.1682
933.0,0.1372
934.0,0.07631
935.0,0.14
936.0,0.08807
937.0,0.08933
938.0,0.1096
939.0,0.2249
940.0,0.2698
941.0,0.2046
942.0,0.2363
943.0,0.1561
944.0,0.1638
945.0,0.2108
946.0,0.1081
947.0,0.212
948.0,0.1558
949.0,0.2829
950.0,0.07987
951.0,0.2784
952.0,0.1506
953.0,0.1939
954.0,0.2369
955.0,0.196
956.0,0.1898
957.0,0.151
958.0,0.2679
959.0,0.2137
960.0,0.2395
961.0,0.2682
962.0,0.2538
963.0,0.292
964.0,0.2677
965.0,0.2909
966.0,0.2911
967.0,0.2899
968.0,0.3867
969.0,0.4041
970.0,0.3714
971.0,0.4242
972.0,0.406
973.0,0.3543
974.0,0.3364
975.0,0.3489
976.0,0.3317
977.0,0.3766
978.0,0.3582
979.0,0.3749
980.0,0.3526
981.0,0.4217
982.0,0.4036
983.0,0.3876
984.0,0.4342
985.0,0.402
986.0,0.4416
987.0,0.4332
988.0,0.4324
989.0,0.4401
990.0,0.4298
991.0,0.4415
992.0,0.444
993.0,0.4344
994.0,0.4439
995.0,0.4433
996.0,0.4413
997.0,0.442
998.0,0.4399
999.0,0.4383
1000.0,0.4352
1001.0,0.4406
1002.0,0.4287
1003.0,0.4329
1004.0,0.4223
1005.0,0.4068
1006.0,0.4227
1007.0,0.4316
1008.0,0.4293
1009.0,0.4271
1010.0,0.4253
1011.0,0.4294
1012.0,0.4258
1013.0,0.4284
1014.0,0.4254
1015.0,0.4226
1016.0,0.4207
1017.0,0.4218
1018.0,0.4202
1019.0,0.4113
1020.0,0.4179
1021.0,0.4174
1022.0,0.4141
1023.0,0.4185
1024.0,0.4132
1025.0,0.4182
1026.0,0.4165
1027.0,0.4155
1028.0,0.4146
1029.0,0.4097
1030.0,0.4125
1031.0,0.4109
1032.0,0.4097
1033.0,0.4035
1034.0,0.4035
1035.0,0.4048
1036.0,0.4069
1037.0,0.4003
1038.0,0.402
1039.0,0.4018
1040.0,0.4002
1041.0,0.4018
1042.0,0.399
1043.0,0.3977
1044.0,0.3991
1045.0,0.3937
1046.0,0.3894
1047.0,0.3929
1048.0,0.395
1049.0,0.3936
1050.0,0.3918
1051.0,0.3913
1052.0,0.3897
1053.0,0.3866
1054.0,0.3874
1055.0,0.3877
1056.0,0.3863
1057.0,0.3851
1058.0,0.3757
1059.0,0.3761
1060.0,0.3755
1061.0,0.3751
1062.0,0.377
1063.0,0.3733
1064.0,0.3778
1065.0,0.3751
1066.0,0.3676
1067.0,0.3724
1068.0,0.3643
1069.0,0.353
1070.0,0.365
1071.0,0.3706
1072.0,0.3664
1073.0,0.3611
1074.0,0.3704
1075.0,0.352
1076.0,0.3701
1077.0,0.3636
1078.0,0.3567
1079.0,0.3641
1080.0,0.358
1081.0,0.3466
1082.0,0.352
1083.0,0.353
1084.0,0.3458
1085.0,0.3588
1086.0,0.3277
1087.0,0.338
1088.0,0.3527
1089.0,0.342
1090.0,0.3346
1091.0,0.3516
1092.0,0.3506
1093.0,0.2979
1094.0,0.3209
1095.0,0.3103
1096.0,0.2972
1097.0,0.3425
1098.0,0.2927
1099.0,0.3052
1100.0,0.2839
1101.0,0.2874
1102.0,0.2747
1103.0,0.2721
1104.0,0.2725
1105.0,0.2983
1106.0,0.2291
1107.0,0.2835
1108.0,0.2408
1109.0,0.2412
1110.0,0.281
1111.0,0.1914
1112.0,0.2393
1113.0,0.1531
1114.0,0.171
1115.0,0.1418
1116.0,0.1136
1117.0,0.04214
1118.0,0.1235
1119.0,0.06159
1120.0,0.07755
1121.0,0.1027
1122.0,0.0435
1123.0,0.07007
1124.0,0.05914
1125.0,0.07708
1126.0,0.02708
1127.0,0.08693
1128.0,0.05227
1129.0,0.05543
1130.0,0.03657
1131.0,0.1642
1132.0,0.1289
1133.0,0.08206
1134.0,0.02116
1135.0,0.007918
1136.0,0.06857
1137.0,0.1614
1138.0,0.1138
1139.0,0.169
1140.0,0.1415
1141.0,0.1081
1142.0,0.1242
1143.0,0.1761
1144.0,0.06186
1145.0,0.07914
1146.0,0.08535
1147.0,0.03027
1148.0,0.1524
1149.0,0.1219
1150.0,0.0665
1151.0,0.1129
1152.0,0.1387
1153.0,0.135
1154.0,0.07673
1155.0,0.1763
1156.0,0.1589
1157.0,0.178
1158.0,0.1761
1159.0,0.1897
1160.0,0.1624
1161.0,0.1995
1162.0,0.2005
1163.0,0.2695
1164.0,0.2316
1165.0,0.219
1166.0,0.2171
1167.0,0.2362
1168.0,0.239
1169.0,0.2445
1170.0,0.2652
1171.0,0.2586
1172.0,0.263
1173.0,0.2646
1174.0,0.1904
1175.0,0.2583
1176.0,0.2831
1177.0,0.2723
1178.0,0.2057
1179.0,0.2854
1180.0,0.2556
1181.0,0.2637
1182.0,0.1833
1183.0,0.2595
1184.0,0.2436
1185.0,0.2355
1186.0,0.2778
1187.0,0.265
1188.0,0.1865
1189.0,0.247
1190.0,0.2715
1191.0,0.2586
1192.0,0.2752
1193.0,0.264
1194.0,0.2719
1195.0,0.2577
1196.0,0.2486
1197.0,0.2717
1198.0,0.249
1199.0,0.2131
1200.0,0.2607
1201.0,0.2519
1202.0,0.2501
1203.0,0.2481
1204.0,0.2177
1205.0,0.2556
1206.0,0.2816
1207.0,0.2496
1208.0,0.2453
1209.0,0.2503
1210.0,0.2604
1211.0,0.2485
1212.0,0.2462
1213.0,0.2726
1214.0,0.2518
1215.0,0.2471
1216.0,0.2717
1217.0,0.2648
1218.0,0.2695
1219.0,0.2663
1220.0,0.2698
1221.0,0.2723
1222.0,0.2654
1223.0,0.263
1224.0,0.2616
1225.0,0.2706
1226.0,0.2722
1227.0,0.2518
1228.0,0.2734
1229.0,0.2722
1230.0,0.2677
1231.0,0.2749
1232.0,0.2732
1233.0,0.2645
1234.0,0.2745
1235.0,0.2728
1236.0,0.2748
1237.0,0.2712
1238.0,0.2738
1239.0,0.2703
1240.0,0.2713
1241.0,0.2702
1242.0,0.2695
1243.0,0.2673
1244.0,0.2692
1245.0,0.2703
1246.0,0.2688
1247.0,0.2678
1248.0,0.2676
1249.0,0.2684
1250.0,0.2668
1251.0,0.2635
1252.0,0.2634
1253.0,0.2615
1254.0,0.2591
1255.0,0.2632
1256.0,0.2562
1257.0,0.2549
1258.0,0.2593
1259.0,0.2506
1260.0,0.2518
1261.0,0.2384
1262.0,0.2317
1263.0,0.2321
1264.0,0.2152
1265.0,0.2306
1266.0,0.2224
1267.0,0.226
1268.0,0.2149
1269.0,0.1372
1270.0,0.2253
1271.0,0.2375
1272.0,0.2382
1273.0,0.2358
1274.0,0.2364
1275.0,0.2397
1276.0,0.2419
1277.0,0.2433
1278.0,0.2477
1279.0,0.2455
1280.0,0.2423
1281.0,0.2311
1282.0,0.2224
1283.0,0.2396
1284.0,0.2454
1285.0,0.247
1286.0,0.2502
1287.0,0.2466
1288.0,0.2464
1289.0,0.2391
1290.0,0.2442
1291.0,0.2475
1292.0,0.2335
1293.0,0.2429
1294.0,0.2413
1295.0,0.2403
1296.0,0.23
1297.0,0.218
1298.0,0.2338
1299.0,0.2432
1300.0,0.2073
1301.0,0.2134
1302.0,0.233
1303.0,0.2044
1304.0,0.1757
1305.0,0.2283
1306.0,0.2284
1307.0,0.179
1308.0,0.2045
1309.0,0.2268
1310.0,0.1757
1311.0,0.1964
1312.0,0.1913
1313.0,0.1878
1314.0,0.1686
1315.0,0.1667
1316.0,0.1935
1317.0,0.1835
1318.0,0.1989
1319.0,0.1569
1320.0,0.1517
1321.0,0.1762
1322.0,0.1782
1323.0,0.1353
1324.0,0.1539
1325.0,0.1908
1326.0,0.1645
1327.0,0.1571
1328.0,0.1359
1329.0,0.103
1330.0,0.1336
1331.0,0.08164
1332.0,0.08397
1333.0,0.1166
1334.0,0.09831
1335.0,0.1348
1336.0,0.1071
1337.0,0.09498
1338.0,0.1028
1339.0,0.1022
1340.0,0.09912
1341.0,0.09739
1342.0,0.1022
1343.0,0.07039
1344.0,0.04209
1345.0,0.06063
1346.0,0.03083
1347.0,0.03147
1348.0,0.002173
1349.0,0.007671
1350.0,0.007868
1351.0,0.002024
1352.0,0.000582
1353.0,3.185e-05
1354.0,0.0001049
1355.0,9.779e-07
1356.0,1.564e-05
1357.0,2.379e-05
1358.0,1.152e-06
1359.0,1.619e-07
1360.0,5.479e-07
1361.0,7.722e-10
1362.0,2.338e-12
1363.0,7.668e-07
1364.0,3.197e-07
1365.0,9.317e-13
1366.0,3.257e-06
1367.0,1.31e-06
1368.0,9.265e-15
1369.0,1.203e-07
1370.0,6.214e-08
1371.0,3.737e-09
1372.0,7.207e-07
1373.0,1.353e-05
1374.0,5.988e-05
1375.0,0.0001091
1376.0,9.42e-05
1377.0,4.364e-05
1378.0,0.0004182
1379.0,1.838e-05
1380.0,2.73e-05
1381.0,7.356e-07
1382.0,6.586e-07
1383.0,1.03e-08
1384.0,1.386e-07
1385.0,5.92e-07
1386.0,6.061e-07
1387.0,6.404e-05
1388.0,1.267e-06
1389.0,0.0002059
1390.0,0.0001773
1391.0,0.0001196
1392.0,7.912e-06
1393.0,4.089e-05
1394.0,2.289e-05
1395.0,1.785e-07
1396.0,1.079e-09
1397.0,1.662e-05
1398.0,0.0004723
1399.0,0.0002993
1400.0,4.955e-10
1401.0,1.9e-09
1402.0,0.0007812
1403.0,0.0009938
1404.0,0.0003045
1405.0,9.042e-08
1406.0,0.0008087
1407.0,7.045e-05
1408.0,0.0006593
1409.0,0.0002291
1410.0,0.0001795
1411.0,0.000872
1412.0,0.001158
1413.0,0.01144
1414.0,0.000141
1415.0,6.88e-05
1416.0,0.01845
1417.0,0.00566
1418.0,0.00646
1419.0,0.001006
1420.0,0.003955
1421.0,0.004277
1422.0,0.02407
1423.0,0.004681
1424.0,0.008758
1425.0,0.01291
1426.0,0.01461
1427.0,0.02677
1428.0,0.002051
1429.0,0.02005
1430.0,0.03412
1431.0,0.03747
1432.0,0.001616
1433.0,0.02383
1434.0,0.01212
1435.0,0.01211
1436.0,0.02339
1437.0,0.01793
1438.0,0.007564
1439.0,0.03183
1440.0,0.02384
1441.0,0.01814
1442.0,0.02013
1443.0,0.02533
1444.0,0.03513
1445.0,0.02742
1446.0,0.01231
1447.0,0.01941
