interpolation:linear
wavelength,value
280.0,4.398e-21
280.5,1.361e-19
281.0,7.154e-19
281.5,4.721e-19
282.0,1.265e-18
282.5,3.275e-18
283.0,1.048e-17
283.5,1.708e-17
284.0,2.73e-16
284.5,7.827e-16
285.0,1.69e-15
285.5,8.405e-15
286.0,3.378e-14
286.5,1.497e-13
287.0,4.243e-13
287.5,1.605e-12
288.0,4.15e-12
288.5,1.415e-11
289.0,4.102e-11
289.5,1.322e-10
290.0,3.821e-10
290.5,8.021e-10
291.0,1.772e-09
291.5,5.655e-09
292.0,1.234e-08
292.5,1.89e-08
293.0,4.539e-08
293.5,1.293e-07
294.0,2.266e-07
294.5,2.946e-07
295.0,5.594e-07
295.5,1.518e-06
296.0,3.039e-06
296.5,4.423e-06
297.0,6.2e-06
297.5,1.758e-05
298.0,2.915e-05
298.5,3.056e-05
299.0,7.03e-05
299.5,0.0001261
300.0,0.0001453
300.5,0.0002217
301.0,0.0004398
301.5,0.0007744
302.0,0.0007039
302.5,0.00138
303.0,0.002488
303.5,0.003139
304.0,0.002952
304.5,0.004411
305.0,0.006692
305.5,0.007662
306.0,0.007416
306.5,0.00923
307.0,0.01367
307.5,0.01813
308.0,0.01914
308.5,0.02257
309.0,0.02216
309.5,0.02527
310.0,0.02535
310.5,0.04103
311.0,0.05144
311.5,0.04963
312.0,0.04947
312.5,0.06006
313.0,0.06507
313.5,0.06327
314.0,0.07888
314.5,0.06966
315.0,0.09149
315.5,0.07671
316.0,0.06676
316.5,0.09557
317.0,0.1187
317.5,0.1236
318.0,0.09625
318.5,0.119
319.0,0.1409
319.5,0.1153
320.0,0.1394
320.5,0.1736
321.0,0.1539
321.5,0.1475
322.0,0.1581
322.5,0.1375
323.0,0.1365
323.5,0.1672
324.0,0.1951
324.5,0.1984
325.0,0.1717
325.5,0.2203
326.0,0.2692
326.5,0.269
327.0,0.2684
327.5,0.2595
328.0,0.2318
328.5,0.2428
329.0,0.29
329.5,0.3289
330.0,0.3321
330.5,0.2664
331.0,0.2717
331.5,0.2757
332.0,0.2972
332.5,0.2937
333.0,0.2931
333.5,0.2658
334.0,0.2724
334.5,0.3137
335.0,0.2945
335.5,0.344
336.0,0.2381
336.5,0.279
337.0,0.2292
337.5,0.2852
338.0,0.278
338.5,0.3209
339.0,0.3177
339.5,0.3057
340.0,0.3593
340.5,0.3239
341.0,0.3159
341.5,0.2901
342.0,0.3468
342.5,0.3245
343.0,0.3569
343.5,0.3362
344.0,0.2485
344.5,0.251
345.0,0.3322
345.5,0.3393
346.0,0.2884
346.5,0.3267
347.0,0.3507
347.5,0.2837
348.0,0.3234
348.5,0.3233
349.0,0.3
349.5,0.2971
350.0,0.3676
350.5,0.3878
351.0,0.3465
351.5,0.3368
352.0,0.3619
352.5,0.2824
353.0,0.3558
353.5,0.3806
354.0,0.3952
354.5,0.4008
355.0,0.3996
355.5,0.3611
356.0,0.3778
356.5,0.3227
357.0,0.2667
357.5,0.3265
358.0,0.2588
358.5,0.2212
359.0,0.3095
359.5,0.3944
360.0,0.4182
360.5,0.3343
361.0,0.3048
361.5,0.3511
362.0,0.3037
362.5,0.4205
363.0,0.3778
363.5,0.3481
364.0,0.4258
364.5,0.3641
365.0,0.3709
365.5,0.4656
366.0,0.4934
366.5,0.4637
367.0,0.4517
367.5,0.4689
368.0,0.4104
368.5,0.4142
369.0,0.4474
369.5,0.477
370.0,0.5086
370.5,0.3949
371.0,0.422
371.5,0.5281
372.0,0.3506
372.5,0.4205
373.0,0.4278
373.5,0.2784
374.0,0.4047
374.5,0.3352
375.0,0.3259
375.5,0.4867
376.0,0.4035
376.5,0.4183
377.0,0.4429
377.5,0.5183
378.0,0.562
378.5,0.5313
379.0,0.4385
379.5,0.4006
380.0,0.4166
380.5,0.5047
381.0,0.5059
381.5,0.4012
382.0,0.3564
382.5,0.3039
383.0,0.2814
383.5,0.2711
384.0,0.2991
384.5,0.4401
385.0,0.4365
385.5,0.4067
386.0,0.3484
386.5,0.4577
387.0,0.3804
387.5,0.4274
388.0,0.3947
388.5,0.3902
389.0,0.4213
389.5,0.5104
390.0,0.5124
390.5,0.4717
391.0,0.5553
391.5,0.5665
392.0,0.4773
392.5,0.4274
393.0,0.2379
393.5,0.1729
394.0,0.352
394.5,0.4476
395.0,0.5463
395.5,0.5551
396.0,0.4814
396.5,0.2815
397.0,0.2113
397.5,0.4298
398.0,0.6019
398.5,0.6223
399.0,0.674
399.5,0.672
400.0,0.6978
401.0,0.7077
402.0,0.747
403.0,0.7099
404.0,0.6992
405.0,0.6993
406.0,0.6882
407.0,0.6774
408.0,0.704
409.0,0.7537
410.0,0.6588
411.0,0.7139
412.0,0.767
413.0,0.7482
414.0,0.7576
415.0,0.7599
416.0,0.7734
417.0,0.7546
418.0,0.7408
419.0,0.7508
420.0,0.7477
421.0,0.7824
422.0,0.7438
423.0,0.7268
424.0,0.7689
425.0,0.7677
426.0,0.748
427.0,0.7342
428.0,0.7153
429.0,0.6778
430.0,0.5933
431.0,0.5882
432.0,0.7596
433.0,0.764
434.0,0.7095
435.0,0.7411
436.0,0.8352
437.0,0.8242
438.0,0.7507
439.0,0.7764
440.0,0.8013
441.0,0.8305
442.0,0.8909
443.0,0.8678
444.0,0.8868
445.0,0.8677
446.0,0.8283
447.0,0.8956
448.0,0.9096
449.0,0.9134
450.0,0.9391
451.0,0.9741
452.0,0.9386
453.0,0.883
454.0,0.9219
455.0,0.9277
456.0,0.9498
457.0,0.9657
458.0,0.9328
459.0,0.9281
460.0,0.9306
461.0,0.9521
462.0,0.9595
463.0,0.953
464.0,0.9374
465.0,0.9257
466.0,0.9348
467.0,0.9178
468.0,0.9286
469.0,0.9335
470.0,0.9038
471.0,0.9027
472.0,0.9511
473.0,0.9388
474.0,0.9401
475.0,0.9481
476.0,0.9197
477.0,0.9222
478.0,0.9479
479.0,0.9422
480.0,0.9441
481.0,0.9618
482.0,0.967
483.0,0.9554
484.0,0.9359
485.0,0.8918
486.0,0.7797
487.0,0.8172
488.0,0.8966
489.0,0.8993
490.0,0.9462
491.0,0.93
492.0,0.8782
493.0,0.907
494.0,0.9161
495.0,0.924
496.0,0.9297
497.0,0.9441
498.0,0.8999
499.0,0.9114
500.0,0.8849
501.0,0.8686
502.0,0.8562
503.0,0.891
504.0,0.868
505.0,0.8994
506.0,0.9284
507.0,0.8835
508.0,0.8561
509.0,0.8802
510.0,0.8756
511.0,0.8992
512.0,0.909
513.0,0.8604
514.0,0.8545
515.0,0.846
516.0,0.844
517.0,0.7499
518.0,0.7884
519.0,0.8269
520.0,0.857
521.0,0.8651
522.0,0.8659
523.0,0.8503
524.0,0.8806
525.0,0.8909
526.0,0.851
527.0,0.8019
528.0,0.848
529.0,0.8938
530.0,0.8809
531.0,0.894
532.0,0.8632
533.0,0.838
534.0,0.8628
535.0,0.8816
536.0,0.8898
537.0,0.8547
538.0,0.8699
539.0,0.8626
540.0,0.827
541.0,0.8323
542.0,0.8583
543.0,0.8494
544.0,0.864
545.0,0.8614
546.0,0.8651
547.0,0.8648
548.0,0.8545
549.0,0.8571
550.0,0.8673
551.0,0.8568
552.0,0.8627
553.0,0.8473
554.0,0.8675
555.0,0.8692
556.0,0.8579
557.0,0.8312
558.0,0.8249
559.0,0.8094
560.0,0.8195
561.0,0.83
562.0,0.824
563.0,0.8464
564.0,0.8232
565.0,0.8161
566.0,0.804
567.0,0.8192
568.0,0.8116
569.0,0.7919
570.0,0.7917
571.0,0.7871
572.0,0.8057
573.0,0.8142
574.0,0.8116
575.0,0.7963
576.0,0.789
577.0,0.7977
578.0,0.7859
579.0,0.7892
580.0,0.8045
581.0,0.8089
582.0,0.8245
583.0,0.8267
584.0,0.834
585.0,0.8137
586.0,0.797
587.0,0.8143
588.0,0.7939
589.0,0.7022
590.0,0.7344
591.0,0.7779
592.0,0.7676
593.0,0.7795
594.0,0.7739
595.0,0.7544
596.0,0.7851
597.0,0.7763
598.0,0.7746
599.0,0.7754
600.0,0.7768
601.0,0.7707
602.0,0.7655
603.0,0.7782
604.0,0.7911
605.0,0.7871
606.0,0.784
607.0,0.7919
608.0,0.7832
609.0,0.7846
610.0,0.7791
611.0,0.7833
612.0,0.781
613.0,0.7713
614.0,0.7608
615.0,0.7775
616.0,0.7519
617.0,0.7505
618.0,0.7794
619.0,0.7715
620.0,0.7764
621.0,0.7771
622.0,0.7679
623.0,0.7561
624.0,0.7432
625.0,0.7416
626.0,0.7525
627.0,0.7607
628.0,0.7077
629.0,0.7418
630.0,0.7246
631.0,0.7419
632.0,0.7332
633.0,0.7559
634.0,0.7488
635.0,0.7606
636.0,0.7507
637.0,0.7631
638.0,0.7707
639.0,0.7621
640.0,0.7549
641.0,0.7545
642.0,0.7512
643.0,0.7613
644.0,0.759
645.0,0.7601
646.0,0.7421
647.0,0.7325
648.0,0.7331
649.0,0.7189
650.0,0.7233
651.0,0.7549
652.0,0.7224
653.0,0.7449
654.0,0.7367
655.0,0.7087
656.0,0.6285
657.0,0.6455
658.0,0.7237
659.0,0.729
660.0,0.7321
661.0,0.7373
662.0,0.7386
663.0,0.724
664.0,0.7329
665.0,0.7337
666.0,0.7343
667.0,0.7338
668.0,0.7342
669.0,0.7456
670.0,0.7424
671.0,0.7423
672.0,0.736
673.0,0.7471
674.0,0.7444
675.0,0.7377
676.0,0.7428
677.0,0.7354
678.0,0.7376
679.0,0.7257
680.0,0.7315
681.0,0.7267
682.0,0.7258
683.0,0.7244
684.0,0.7208
685.0,0.727
686.0,0.7226
687.0,0.4679
688.0,0.5539
689.0,0.5561
690.0,0.5852
691.0,0.6181
692.0,0.6423
693.0,0.6369
694.0,0.6317
695.0,0.6593
696.0,0.6602
697.0,0.7024
698.0,0.6915
699.0,0.6738
700.0,0.6656
701.0,0.6584
702.0,0.6634
703.0,0.6647
704.0,0.6867
705.0,0.6877
706.0,0.6874
707.0,0.688
708.0,0.6895
709.0,0.6909
710.0,0.6906
711.0,0.6899
712.0,0.688
713.0,0.6809
714.0,0.6835
715.0,0.6615
716.0,0.6617
717.0,0.5696
718.0,0.5225
719.0,0.4782
720.0,0.5006
721.0,0.5552
722.0,0.6381
723.0,0.5925
724.0,0.5321
725.0,0.523
726.0,0.5477
727.0,0.5566
728.0,0.5215
729.0,0.5426
730.0,0.5741
731.0,0.5488
732.0,0.5886
733.0,0.6247
734.0,0.6399
735.0,0.6265
736.0,0.6257
737.0,0.6281
738.0,0.6389
739.0,0.6263
740.0,0.6429
741.0,0.6367
742.0,0.6375
743.0,0.6538
744.0,0.6521
745.0,0.6523
746.0,0.6553
747.0,0.6568
748.0,0.6554
749.0,0.6479
750.0,0.6476
751.0,0.641
752.0,0.6438
753.0,0.647
754.0,0.6485
755.0,0.6448
756.0,0.6446
757.0,0.6455
758.0,0.6374
759.0,0.6238
760.0,0.09223
761.0,0.0463
762.0,0.3055
763.0,0.1452
764.0,0.2247
765.0,0.3055
766.0,0.3815
767.0,0.4881
768.0,0.5688
769.0,0.582
770.0,0.6032
771.0,0.6087
772.0,0.6102
773.0,0.6145
774.0,0.6116
775.0,0.607
776.0,0.6144
777.0,0.6063
778.0,0.6026
779.0,0.6031
780.0,0.5997
781.0,0.6004
782.0,0.6041
783.0,0.5936
784.0,0.5965
785.0,0.592
786.0,0.5985
787.0,0.5875
788.0,0.58
789.0,0.5797
790.0,0.5635
791.0,0.5691
792.0,0.565
793.0,0.5558
794.0,0.5661
795.0,0.5755
796.0,0.5567
797.0,0.5573
798.0,0.5747
799.0,0.5708
800.0,0.5606
801.0,0.5586
802.0,0.557
803.0,0.5526
804.0,0.5535
805.0,0.5521
806.0,0.5681
807.0,0.5611
808.0,0.5617
809.0,0.5508
810.0,0.546
811.0,0.5461
812.0,0.5297
813.0,0.5183
814.0,0.4536
815.0,0.4509
816.0,0.4193
817.0,0.4273
818.0,0.4107
819.0,0.4613
820.0,0.4336
821.0,0.5098
822.0,0.4948
823.0,0.3318
824.0,0.4793
825.0,0.5009
826.0,0.481
827.0,0.5086
828.0,0.4284
829.0,0.4783
830.0,0.4717
831.0,0.4734
832.0,0.4584
833.0,0.4891
834.0,0.4708
835.0,0.5193
836.0,0.4958
837.0,0.5209
838.0,0.504
839.0,0.5132
840.0,0.5246
841.0,0.5168
842.0,0.5184
843.0,0.5186
844.0,0.5111
845.0,0.5287
846.0,0.5265
847.0,0.5168
848.0,0.5134
849.0,0.4988
850.0,0.4779
851.0,0.5058
852.0,0.5023
853.0,0.4837
854.0,0.4175
855.0,0.4589
856.0,0.5014
857.0,0.5127
858.0,0.5089
859.0,0.5094
860.0,0.5104
861.0,0.5076
862.0,0.5156
863.0,0.5278
864.0,0.5014
865.0,0.4971
866.0,0.4469
867.0,0.4664
868.0,0.5076
869.0,0.497
870.0,0.5112
871.0,0.5043
872.0,0.5025
873.0,0.5015
874.0,0.4955
875.0,0.4855
876.0,0.4905
877.0,0.4955
878.0,0.5008
879.0,0.4931
880.0,0.4826
881.0,0.4752
882.0,0.4854
883.0,0.4871
884.0,0.4848
885.0,0.4885
886.0,0.4651
887.0,0.4704
888.0,0.4771
889.0,0.4829
890.0,0.4784
891.0,0.4778
892.0,0.4634
893.0,0.4482
894.0,0.431
895.0,0.4055
896.0,0.3813
897.0,0.3252
898.0,0.3562
899.0,0.2682
900.0,0.3661
901.0,0.2811
902.0,0.3336
903.0,0.3357
904.0,0.4277
905.0,0.4123
906.0,0.3852
907.0,0.3094
908.0,0.3161
909.0,0.344
910.0,0.3013
911.0,0.3231
912.0,0.3383
913.0,0.3056
914.0,0.3036
915.0,0.3291
916.0,0.2779
917.0,0.3559
918.0,0.2848
919.0,0.3632
920.0,0.3687
921.0,0.3837
922.0,0.3408
923.0,0.3708
924.0,0.349
925.0,0.3414
926.0,0.345
927.0,0.3884
928.0,0.2785
929.0,0.2524
930.0,0.1955
931.0,0.1856
932.0,0.1306
933.0,0.1046
934.0,0.05415
935.0,0.1083
936.0,0.06558
937.0,0.06625
938.0,0.08228
939.0,0.1798
940.0,0.2184
941.0,0.162
942.0,0.1893
943.0,0.1222
944.0,0.1309
945.0,0.1676
946.0,0.08216
947.0,0.1675
948.0,0.1226
949.0,0.2273
950.0,0.05849
951.0,0.2244
952.0,0.1164
953.0,0.1531
954.0,0.1908
955.0,0.1552
956.0,0.1526
957.0,0.1163
958.0,0.2204
959.0,0.1716
960.0,0.1923
961.0,0.2186
962.0,0.2065
963.0,0.2405
964.0,0.2195
965.0,0.2398
966.0,0.2392
967.0,0.238
968.0,0.3276
969.0,0.3414
970.0,0.3124
971.0,0.3614
972.0,0.345
973.0,0.2966
974.0,0.281
975.0,0.2931
976.0,0.2763
977.0,0.3185
978.0,0.3008
979.0,0.3163
980.0,0.2967
981.0,0.3594
982.0,0.3423
983.0,0.3278
984.0,0.372
985.0,0.341
986.0,0.3795
987.0,0.3709
988.0,0.3703
989.0,0.3789
990.0,0.3681
991.0,0.38
992.0,0.3823
993.0,0.3727
994.0,0.3823
995.0,0.382
996.0,0.3801
997.0,0.3807
998.0,0.3789
999.0,0.3775
1000.0,0.3746
1001.0,0.3796
1002.0,0.368
1003.0,0.3728
1004.0,0.3634
1005.0,0.3505
1006.0,0.364
1007.0,0.3718
1008.0,0.3696
1009.0,0.3674
1010.0,0.3657
1011.0,0.3699
1012.0,0.3665
1013.0,0.3691
1014.0,0.3665
1015.0,0.3641
1016.0,0.3624
1017.0,0.3633
1018.0,0.362
1019.0,0.3539
1020.0,0.3601
1021.0,0.3596
1022.0,0.3567
1023.0,0.3605
1024.0,0.3553
1025.0,0.3604
1026.0,0.3587
1027.0,0.3579
1028.0,0.3571
1029.0,0.3528
1030.0,0.3554
1031.0,0.3539
1032.0,0.353
1033.0,0.3476
1034.0,0.3477
1035.0,0.3487
1036.0,0.3505
1037.0,0.3448
1038.0,0.3463
1039.0,0.3461
1040.0,0.3447
1041.0,0.346
1042.0,0.3436
1043.0,0.3425
1044.0,0.3437
1045.0,0.339
1046.0,0.3352
1047.0,0.3382
1048.0,0.34
1049.0,0.3388
1050.0,0.3372
1051.0,0.3367
1052.0,0.3353
1053.0,0.3325
1054.0,0.3332
1055.0,0.3333
1056.0,0.3321
1057.0,0.331
1058.0,0.3228
1059.0,0.3231
1060.0,0.3226
1061.0,0.3221
1062.0,0.3237
1063.0,0.3205
1064.0,0.3243
1065.0,0.3218
1066.0,0.3156
1067.0,0.3196
1068.0,0.3125
1069.0,0.303
1070.0,0.3131
1071.0,0.3184
1072.0,0.3144
1073.0,0.3099
1074.0,0.3184
1075.0,0.3013
1076.0,0.3181
1077.0,0.3117
1078.0,0.3055
1079.0,0.3132
1080.0,0.3069
1081.0,0.2965
1082.0,0.3023
1083.0,0.3034
1084.0,0.2955
1085.0,0.3077
1086.0,0.2791
1087.0,0.2893
1088.0,0.3029
1089.0,0.2926
1090.0,0.2854
1091.0,0.3016
1092.0,0.3011
1093.0,0.2522
1094.0,0.2751
1095.0,0.2631
1096.0,0.251
1097.0,0.2942
1098.0,0.2467
1099.0,0.2578
1100.0,0.2383
1101.0,0.2418
1102.0,0.2301
1103.0,0.2272
1104.0,0.2276
1105.0,0.2517
1106.0,0.1873
1107.0,0.238
1108.0,0.1986
1109.0,0.1996
1110.0,0.2355
1111.0,0.1556
1112.0,0.1983
1113.0,0.122
1114.0,0.1368
1115.0,0.1132
1116.0,0.08785
1117.0,0.02966
1118.0,0.09642
1119.0,0.04566
1120.0,0.05729
1121.0,0.07735
1122.0,0.03069
1123.0,0.05187
1124.0,0.04375
1125.0,0.05761
1126.0,0.01823
1127.0,0.06516
1128.0,0.03697
1129.0,0.03949
1130.0,0.02529
1131.0,0.1286
1132.0,0.09991
1133.0,0.06062
1134.0,0.01405
1135.0,0.005352
1136.0,0.04962
1137.0,0.1254
1138.0,0.08779
1139.0,0.1363
1140.0,0.1118
1141.0,0.08348
1142.0,0.09709
1143.0,0.1401
1144.0,0.0464
1145.0,0.05851
1146.0,0.06307
1147.0,0.02031
1148.0,0.1211
1149.0,0.09513
1150.0,0.05021
1151.0,0.08709
1152.0,0.1091
1153.0,0.1077
1154.0,0.0565
1155.0,0.1421
1156.0,0.1269
1157.0,0.1441
1158.0,0.1425
1159.0,0.155
1160.0,0.1311
1161.0,0.1644
1162.0,0.165
1163.0,0.2274
1164.0,0.1934
1165.0,0.1809
1166.0,0.1808
1167.0,0.1977
1168.0,0.1995
1169.0,0.2048
1170.0,0.2239
1171.0,0.2182
1172.0,0.2229
1173.0,0.2234
1174.0,0.1564
1175.0,0.2188
1176.0,0.2422
1177.0,0.2314
1178.0,0.1715
1179.0,0.2442
1180.0,0.2162
1181.0,0.2233
1182.0,0.1516
1183.0,0.2202
1184.0,0.2056
1185.0,0.1976
1186.0,0.2367
1187.0,0.2247
1188.0,0.1539
1189.0,0.2092
1190.0,0.2314
1191.0,0.2184
1192.0,0.2348
1193.0,0.2245
1194.0,0.2317
1195.0,0.2183
1196.0,0.2097
1197.0,0.2323
1198.0,0.2119
1199.0,0.1784
1200.0,0.2216
1201.0,0.2131
1202.0,0.2123
1203.0,0.2103
1204.0,0.183
1205.0,0.2178
1206.0,0.2416
1207.0,0.2115
1208.0,0.2088
1209.0,0.2132
1210.0,0.2225
1211.0,0.2112
1212.0,0.2078
1213.0,0.2332
1214.0,0.2132
1215.0,0.209
1216.0,0.2325
1217.0,0.226
1218.0,0.2306
1219.0,0.2276
1220.0,0.2309
1221.0,0.2334
1222.0,0.2271
1223.0,0.2249
1224.0,0.2232
1225.0,0.2318
1226.0,0.2336
1227.0,0.2146
1228.0,0.235
1229.0,0.2337
1230.0,0.2295
1231.0,0.2366
1232.0,0.2352
1233.0,0.2264
1234.0,0.2366
1235.0,0.2349
1236.0,0.2367
1237.0,0.2331
1238.0,0.236
1239.0,0.2329
1240.0,0.2338
1241.0,0.2325
1242.0,0.2322
1243.0,0.2303
1244.0,0.2319
1245.0,0.2329
1246.0,0.2316
1247.0,0.2306
1248.0,0.2304
1249.0,0.2312
1250.0,0.2297
1251.0,0.2267
1252.0,0.2269
1253.0,0.2248
1254.0,0.2223
1255.0,0.2266
1256.0,0.2197
1257.0,0.2184
1258.0,0.2229
1259.0,0.2141
1260.0,0.2153
1261.0,0.2023
1262.0,0.1957
1263.0,0.1961
1264.0,0.1799
1265.0,0.1948
1266.0,0.1868
1267.0,0.1906
1268.0,0.18
1269.0,0.1069
1270.0,0.1897
1271.0,0.2017
1272.0,0.2025
1273.0,0.2002
1274.0,0.201
1275.0,0.2041
1276.0,0.2063
1277.0,0.2079
1278.0,0.2122
1279.0,0.2103
1280.0,0.2076
1281.0,0.1983
1282.0,0.1913
1283.0,0.206
1284.0,0.2109
1285.0,0.2123
1286.0,0.2153
1287.0,0.2117
1288.0,0.2118
1289.0,0.2045
1290.0,0.2099
1291.0,0.213
1292.0,0.199
1293.0,0.2086
1294.0,0.2071
1295.0,0.2058
1296.0,0.1958
1297.0,0.1847
1298.0,0.1998
1299.0,0.2089
1300.0,0.175
1301.0,0.1808
1302.0,0.1992
1303.0,0.1729
1304.0,0.1458
1305.0,0.195
1306.0,0.1949
1307.0,0.1496
1308.0,0.1735
1309.0,0.1932
1310.0,0.1466
1311.0,0.166
1312.0,0.1612
1313.0,0.1577
1314.0,0.1406
1315.0,0.1383
1316.0,0.163
1317.0,0.1542
1318.0,0.1683
1319.0,0.1294
1320.0,0.1259
1321.0,0.1473
1322.0,0.1484
1323.0,0.1099
1324.0,0.127
1325.0,0.1605
1326.0,0.1366
1327.0,0.13
1328.0,0.1115
1329.0,0.08204
1330.0,0.1077
1331.0,0.06298
1332.0,0.0657
1333.0,0.0919
1334.0,0.0789
1335.0,0.1094
1336.0,0.08543
1337.0,0.07502
1338.0,0.08117
1339.0,0.0811
1340.0,0.07945
1341.0,0.07626
1342.0,0.08023
1343.0,0.05177
1344.0,0.03118
1345.0,0.04505
1346.0,0.02081
1347.0,0.02088
1348.0,0.001151
1349.0,0.004327
1350.0,0.004643
1351.0,0.0009734
1352.0,0.0002225
1353.0,9.627e-06
1354.0,3.715e-05
1355.0,2.106e-07
1356.0,4.655e-06
1357.0,7.116e-06
1358.0,2.531e-07
1359.0,2.438e-08
1360.0,1.053e-07
1361.0,6.708e-11
1362.0,1.461e-13
1363.0,1.301e-07
1364.0,5.364e-08
1365.0,3.758e-14
1366.0,6.109e-07
1367.0,2.65e-07
1368.0,1.599e-16
1369.0,1.982e-08
1370.0,8.73e-09
1371.0,4.34e-10
1372.0,1.463e-07
1373.0,3.535e-06
1374.0,1.861e-05
1375.0,3.345e-05
1376.0,3.368e-05
1377.0,1.503e-05
1378.0,0.0001546
1379.0,6.302e-06
1380.0,8.385e-06
1381.0,2.047e-07
1382.0,1.277e-07
1383.0,1.743e-09
1384.0,2.139e-08
1385.0,1.378e-07
1386.0,1.049e-07
1387.0,1.78e-05
1388.0,3.554e-07
1389.0,6.971e-05
1390.0,5.969e-05
1391.0,3.892e-05
1392.0,2.445e-06
1393.0,1.387e-05
1394.0,5.824e-06
1395.0,3.747e-08
1396.0,1.045e-10
1397.0,5.258e-06
1398.0,0.000171
1399.0,0.0001091
1400.0,3.88e-11
1401.0,1.985e-10
1402.0,0.0003639
1403.0,0.0004417
1404.0,0.0001325
1405.0,1.655e-08
1406.0,0.0003248
1407.0,3.02e-05
1408.0,0.0002686
1409.0,8.136e-05
1410.0,7.013e-05
1411.0,0.0003912
1412.0,0.0005547
1413.0,0.006612
1414.0,5.611e-05
1415.0,2.569e-05
1416.0,0.012
1417.0,0.003267
1418.0,0.003639
1419.0,0.0005502
1420.0,0.002215
1421.0,0.002414
1422.0,0.01574
1423.0,0.002959
1424.0,0.005654
1425.0,0.008129
1426.0,0.009681
1427.0,0.01883
1428.0,0.001065
1429.0,0.01355
1430.0,0.02447
1431.0,0.02723
1432.0,0.0008312
1433.0,0.01684
1434.0,0.008334
1435.0,0.007541
1436.0,0.01576
1437.0,0.01211
1438.0,0.004783
