interpolation:linear
wavelength,value
280.0,7.570000000000001e-20
280.5,2.074e-18
281.0,1.992e-19
281.5,4.914e-19
282.0,2.285e-18
282.5,6.59e-18
283.0,2.218e-17
283.5,3.673e-17
284.0,5.806e-16
284.5,1.638e-15
285.0,3.631e-15
285.5,2.326e-14
286.0,1.008e-13
286.5,5.007e-13
287.0,1.518e-12
287.5,6.156e-12
288.0,1.841e-11
288.5,7.36e-11
289.0,2.493e-10
289.5,9.454e-10
290.0,3.121e-09
290.5,7.325e-09
291.0,1.845e-08
291.5,6.416e-08
292.0,1.666e-07
292.5,2.603e-07
293.0,6.394e-07
293.5,1.877e-06
294.0,3.389e-06
294.5,4.376e-06
295.0,8.42e-06
295.5,1.974e-05
296.0,3.706e-05
296.5,5.04e-05
297.0,6.662e-05
297.5,0.0001723
298.0,0.0002631
298.5,0.0002581
299.0,0.0005553
299.5,0.0008811
300.0,0.0009453
300.5,0.001334
301.0,0.00231
301.5,0.003537
302.0,0.002965
302.5,0.005559
303.0,0.009462
303.5,0.01151
304.0,0.01056
304.5,0.01481
305.0,0.02061
305.5,0.02238
306.0,0.02122
306.5,0.02554
307.0,0.03518
307.5,0.04361
308.0,0.04555
308.5,0.05199
309.0,0.04994
309.5,0.05449
310.0,0.05354
310.5,0.08575
311.0,0.1057
311.5,0.1012
312.0,0.09714
312.5,0.1151
313.0,0.123
313.5,0.121
314.0,0.1465
314.5,0.1244
315.0,0.1622
315.5,0.1385
316.0,0.1168
316.5,0.1627
317.0,0.2021
317.5,0.2121
318.0,0.162
318.5,0.1934
319.0,0.2249
319.5,0.1893
320.0,0.2297
320.5,0.2761
321.0,0.2371
321.5,0.2265
322.0,0.2509
322.5,0.2178
323.0,0.2115
323.5,0.2536
324.0,0.2948
324.5,0.3023
325.0,0.2647
325.5,0.3335
326.0,0.4051
326.5,0.4001
327.0,0.4007
327.5,0.3894
328.0,0.353
328.5,0.3629
329.0,0.4271
329.5,0.4822
330.0,0.4884
330.5,0.396
331.0,0.4053
331.5,0.4077
332.0,0.4342
332.5,0.4266
333.0,0.4269
333.5,0.3905
334.0,0.4006
334.5,0.4567
335.0,0.4262
335.5,0.4977
336.0,0.3443
336.5,0.4045
337.0,0.3334
337.5,0.4154
338.0,0.4016
338.5,0.4633
339.0,0.4584
339.5,0.4409
340.0,0.5182
340.5,0.4666
341.0,0.4552
341.5,0.4177
342.0,0.4991
342.5,0.4668
343.0,0.5134
343.5,0.4835
344.0,0.3571
344.5,0.3608
345.0,0.4772
345.5,0.487
346.0,0.4138
346.5,0.4684
347.0,0.5029
347.5,0.4065
348.0,0.4633
348.5,0.4629
349.0,0.4293
349.5,0.425
350.0,0.5256
350.5,0.5543
351.0,0.4952
351.5,0.4814
352.0,0.5169
352.5,0.4032
353.0,0.5077
353.5,0.5428
354.0,0.5634
354.5,0.5714
355.0,0.5694
355.5,0.5143
356.0,0.538
356.5,0.4594
357.0,0.3796
357.5,0.4646
358.0,0.3682
358.5,0.3146
359.0,0.4401
359.5,0.5609
360.0,0.5945
360.5,0.4751
361.0,0.433
361.5,0.4984
362.0,0.4309
362.5,0.5962
363.0,0.5353
363.5,0.493
364.0,0.6029
364.5,0.5153
365.0,0.5247
365.5,0.6585
366.0,0.6976
366.5,0.6553
367.0,0.6381
367.5,0.6622
368.0,0.5794
368.5,0.5846
369.0,0.6313
369.5,0.6728
370.0,0.7172
370.5,0.5566
371.0,0.5946
371.5,0.7439
372.0,0.4937
372.5,0.592
373.0,0.6021
373.5,0.3917
374.0,0.5691
374.5,0.4713
375.0,0.4581
375.5,0.6839
376.0,0.567
376.5,0.5875
377.0,0.622
377.5,0.7276
378.0,0.7888
378.5,0.7455
379.0,0.6153
379.5,0.5621
380.0,0.5844
380.5,0.7077
381.0,0.7091
381.5,0.562
382.0,0.4991
382.5,0.4254
383.0,0.3938
383.5,0.3792
384.0,0.4183
384.5,0.6153
385.0,0.6101
385.5,0.5681
386.0,0.4866
386.5,0.6391
387.0,0.531
387.5,0.5964
388.0,0.5507
388.5,0.5443
389.0,0.5875
389.5,0.7116
390.0,0.7141
390.5,0.6572
391.0,0.7735
391.5,0.7889
392.0,0.6645
392.5,0.5948
393.0,0.331
393.5,0.2406
394.0,0.4895
394.5,0.6223
395.0,0.7594
395.5,0.7714
396.0,0.6688
396.5,0.3909
397.0,0.2933
397.5,0.5966
398.0,0.8355
398.5,0.8635
399.0,0.9349
399.5,0.9318
400.0,0.9677
401.0,0.9835
402.0,1.037
403.0,0.9853
404.0,0.9701
405.0,0.9699
406.0,0.9539
407.0,0.9383
408.0,0.975
409.0,1.043
410.0,0.9116
411.0,0.9872
412.0,1.06
413.0,1.034
414.0,1.046
415.0,1.049
416.0,1.067
417.0,1.041
418.0,1.021
419.0,1.034
420.0,1.03
421.0,1.077
422.0,1.024
423.0,0.9999
424.0,1.058
425.0,1.055
426.0,1.028
427.0,1.008
428.0,0.9823
429.0,0.9301
430.0,0.8138
431.0,0.8067
432.0,1.041
433.0,1.047
434.0,0.9721
435.0,1.015
436.0,1.144
437.0,1.128
438.0,1.027
439.0,1.062
440.0,1.096
441.0,1.135
442.0,1.217
443.0,1.186
444.0,1.211
445.0,1.185
446.0,1.131
447.0,1.222
448.0,1.241
449.0,1.245
450.0,1.28
451.0,1.327
452.0,1.279
453.0,1.202
454.0,1.255
455.0,1.263
456.0,1.292
457.0,1.314
458.0,1.269
459.0,1.263
460.0,1.266
461.0,1.295
462.0,1.305
463.0,1.296
464.0,1.274
465.0,1.257
466.0,1.269
467.0,1.246
468.0,1.261
469.0,1.267
470.0,1.227
471.0,1.225
472.0,1.291
473.0,1.274
474.0,1.276
475.0,1.288
476.0,1.25
477.0,1.254
478.0,1.288
479.0,1.28
480.0,1.282
481.0,1.306
482.0,1.312
483.0,1.295
484.0,1.268
485.0,1.208
486.0,1.056
487.0,1.106
488.0,1.213
489.0,1.217
490.0,1.281
491.0,1.258
492.0,1.188
493.0,1.227
494.0,1.239
495.0,1.249
496.0,1.257
497.0,1.277
498.0,1.217
499.0,1.233
500.0,1.197
501.0,1.176
502.0,1.16
503.0,1.208
504.0,1.179
505.0,1.22
506.0,1.259
507.0,1.198
508.0,1.16
509.0,1.192
510.0,1.185
511.0,1.217
512.0,1.229
513.0,1.164
514.0,1.155
515.0,1.144
516.0,1.141
517.0,1.014
518.0,1.066
519.0,1.118
520.0,1.159
521.0,1.17
522.0,1.171
523.0,1.15
524.0,1.192
525.0,1.206
526.0,1.153
527.0,1.086
528.0,1.149
529.0,1.212
530.0,1.195
531.0,1.213
532.0,1.171
533.0,1.137
534.0,1.17
535.0,1.195
536.0,1.206
537.0,1.158
538.0,1.179
539.0,1.169
540.0,1.121
541.0,1.129
542.0,1.164
543.0,1.152
544.0,1.172
545.0,1.168
546.0,1.174
547.0,1.173
548.0,1.159
549.0,1.162
550.0,1.176
551.0,1.161
552.0,1.17
553.0,1.149
554.0,1.176
555.0,1.179
556.0,1.164
557.0,1.128
558.0,1.119
559.0,1.099
560.0,1.113
561.0,1.128
562.0,1.12
563.0,1.151
564.0,1.12
565.0,1.111
566.0,1.095
567.0,1.116
568.0,1.107
569.0,1.083
570.0,1.082
571.0,1.075
572.0,1.102
573.0,1.114
574.0,1.111
575.0,1.091
576.0,1.081
577.0,1.092
578.0,1.075
579.0,1.079
580.0,1.098
581.0,1.102
582.0,1.122
583.0,1.124
584.0,1.133
585.0,1.105
586.0,1.082
587.0,1.107
588.0,1.083
589.0,0.9646
590.0,1.008
591.0,1.064
592.0,1.052
593.0,1.065
594.0,1.059
595.0,1.035
596.0,1.071
597.0,1.061
598.0,1.056
599.0,1.057
600.0,1.057
601.0,1.048
602.0,1.041
603.0,1.057
604.0,1.075
605.0,1.069
606.0,1.064
607.0,1.074
608.0,1.062
609.0,1.063
610.0,1.055
611.0,1.06
612.0,1.057
613.0,1.043
614.0,1.029
615.0,1.051
616.0,1.016
617.0,1.014
618.0,1.052
619.0,1.042
620.0,1.048
621.0,1.05
622.0,1.038
623.0,1.022
624.0,1.004
625.0,1.002
626.0,1.017
627.0,1.029
628.0,0.973
629.0,1.009
630.0,0.9862
631.0,1.005
632.0,0.9919
633.0,1.02
634.0,1.009
635.0,1.024
636.0,1.01
637.0,1.026
638.0,1.035
639.0,1.023
640.0,1.013
641.0,1.011
642.0,1.006
643.0,1.02
644.0,1.016
645.0,1.018
646.0,0.9957
647.0,0.987
648.0,0.9883
649.0,0.9694
650.0,0.97
651.0,1.011
652.0,0.9736
653.0,0.9977
654.0,0.9862
655.0,0.9517
656.0,0.8419
657.0,0.8644
658.0,0.9675
659.0,0.9738
660.0,0.9776
661.0,0.9844
662.0,0.9872
663.0,0.9674
664.0,0.9777
665.0,0.9776
666.0,0.978
667.0,0.9766
668.0,0.9766
669.0,0.9915
670.0,0.987
671.0,0.9866
672.0,0.978
673.0,0.9925
674.0,0.9886
675.0,0.9795
676.0,0.986
677.0,0.9761
678.0,0.9787
679.0,0.9628
680.0,0.9704
681.0,0.964
682.0,0.9627
683.0,0.9608
684.0,0.9561
685.0,0.9641
686.0,0.9585
687.0,0.6872
688.0,0.7808
689.0,0.7828
690.0,0.8129
691.0,0.8465
692.0,0.8701
693.0,0.8637
694.0,0.8566
695.0,0.886
696.0,0.8872
697.0,0.9337
698.0,0.9194
699.0,0.9024
700.0,0.8916
701.0,0.8842
702.0,0.8884
703.0,0.89
704.0,0.9154
705.0,0.9168
706.0,0.9148
707.0,0.9151
708.0,0.9171
709.0,0.9166
710.0,0.9175
711.0,0.9156
712.0,0.912
713.0,0.9036
714.0,0.9068
715.0,0.8801
716.0,0.8811
717.0,0.7829
718.0,0.7223
719.0,0.6637
720.0,0.6965
721.0,0.7573
722.0,0.8537
723.0,0.8014
724.0,0.7295
725.0,0.7204
726.0,0.7527
727.0,0.7591
728.0,0.7194
729.0,0.7396
730.0,0.7824
731.0,0.7507
732.0,0.7959
733.0,0.8357
734.0,0.8537
735.0,0.837
736.0,0.8358
737.0,0.8394
738.0,0.8478
739.0,0.8312
740.0,0.8515
741.0,0.8422
742.0,0.8422
743.0,0.8634
744.0,0.8604
745.0,0.8602
746.0,0.8641
747.0,0.8659
748.0,0.8641
749.0,0.8542
750.0,0.8536
751.0,0.845
752.0,0.8485
753.0,0.8528
754.0,0.8547
755.0,0.8499
756.0,0.8494
757.0,0.8507
758.0,0.8402
759.0,0.8257
760.0,0.1897
761.0,0.1116
762.0,0.4744
763.0,0.2688
764.0,0.3757
765.0,0.4747
766.0,0.5578
767.0,0.6795
768.0,0.7651
769.0,0.7769
770.0,0.7986
771.0,0.803
772.0,0.804
773.0,0.8095
774.0,0.8054
775.0,0.7992
776.0,0.8089
777.0,0.7982
778.0,0.7934
779.0,0.794
780.0,0.7895
781.0,0.7903
782.0,0.7952
783.0,0.7813
784.0,0.785
785.0,0.7794
786.0,0.7881
787.0,0.7763
788.0,0.7676
789.0,0.7675
790.0,0.75
791.0,0.7537
792.0,0.7478
793.0,0.736
794.0,0.7456
795.0,0.7589
796.0,0.7395
797.0,0.7406
798.0,0.7584
799.0,0.7543
800.0,0.7422
801.0,0.7407
802.0,0.7385
803.0,0.7334
804.0,0.734
805.0,0.7305
806.0,0.7492
807.0,0.7406
808.0,0.7411
809.0,0.7286
810.0,0.7236
811.0,0.7264
812.0,0.7083
813.0,0.6953
814.0,0.621
815.0,0.6169
816.0,0.5755
817.0,0.5848
818.0,0.5651
819.0,0.6236
820.0,0.5905
821.0,0.6792
822.0,0.6616
823.0,0.4677
824.0,0.6461
825.0,0.6679
826.0,0.6459
827.0,0.6781
828.0,0.5848
829.0,0.6413
830.0,0.634
831.0,0.6358
832.0,0.6181
833.0,0.6525
834.0,0.6327
835.0,0.688
836.0,0.6629
837.0,0.6896
838.0,0.6701
839.0,0.6788
840.0,0.6932
841.0,0.6842
842.0,0.6844
843.0,0.6827
844.0,0.6739
845.0,0.6956
846.0,0.6924
847.0,0.6791
848.0,0.6755
849.0,0.6563
850.0,0.6287
851.0,0.6663
852.0,0.6613
853.0,0.636
854.0,0.5496
855.0,0.6032
856.0,0.6595
857.0,0.6738
858.0,0.669
859.0,0.6693
860.0,0.6703
861.0,0.6667
862.0,0.6771
863.0,0.6931
864.0,0.6584
865.0,0.6526
866.0,0.5868
867.0,0.6124
868.0,0.6664
869.0,0.6525
870.0,0.6711
871.0,0.662
872.0,0.6596
873.0,0.6583
874.0,0.6504
875.0,0.6373
876.0,0.6439
877.0,0.6504
878.0,0.6576
879.0,0.6474
880.0,0.6335
881.0,0.6243
882.0,0.6379
883.0,0.6396
884.0,0.6368
885.0,0.6416
886.0,0.6125
887.0,0.6182
888.0,0.6278
889.0,0.6341
890.0,0.6298
891.0,0.6282
892.0,0.6114
893.0,0.5938
894.0,0.576
895.0,0.5481
896.0,0.5181
897.0,0.4503
898.0,0.4884
899.0,0.3779
900.0,0.4968
901.0,0.3959
902.0,0.456
903.0,0.4633
904.0,0.5716
905.0,0.5537
906.0,0.5195
907.0,0.43
908.0,0.4374
909.0,0.47
910.0,0.4224
911.0,0.4462
912.0,0.4649
913.0,0.429
914.0,0.4241
915.0,0.4592
916.0,0.3907
917.0,0.4884
918.0,0.4008
919.0,0.4956
920.0,0.4972
921.0,0.5163
922.0,0.4664
923.0,0.4985
924.0,0.4783
925.0,0.468
926.0,0.4732
927.0,0.5251
928.0,0.3983
929.0,0.3671
930.0,0.294
931.0,0.2776
932.0,0.2055
933.0,0.1701
934.0,0.09973
935.0,0.1715
936.0,0.1111
937.0,0.1132
938.0,0.1376
939.0,0.269
940.0,0.3197
941.0,0.2466
942.0,0.2822
943.0,0.1897
944.0,0.1961
945.0,0.2533
946.0,0.1345
947.0,0.2559
948.0,0.1889
949.0,0.337
950.0,0.1023
951.0,0.3309
952.0,0.1851
953.0,0.2342
954.0,0.2819
955.0,0.2363
956.0,0.2268
957.0,0.1861
958.0,0.3139
959.0,0.2551
960.0,0.2857
961.0,0.3164
962.0,0.2999
963.0,0.3419
964.0,0.3145
965.0,0.3402
966.0,0.3412
967.0,0.3401
968.0,0.4429
969.0,0.4636
970.0,0.4276
971.0,0.4837
972.0,0.4638
973.0,0.4096
974.0,0.3896
975.0,0.4021
976.0,0.3849
977.0,0.432
978.0,0.4129
979.0,0.4306
980.0,0.406
981.0,0.4807
982.0,0.4617
983.0,0.4444
984.0,0.493
985.0,0.4599
986.0,0.5003
987.0,0.492
988.0,0.4911
989.0,0.4979
990.0,0.488
991.0,0.4995
992.0,0.5023
993.0,0.4926
994.0,0.502
995.0,0.5011
996.0,0.4991
997.0,0.4997
998.0,0.4975
999.0,0.4956
1000.0,0.4925
1001.0,0.4982
1002.0,0.4859
1003.0,0.4895
1004.0,0.4779
1005.0,0.4599
1006.0,0.4781
1007.0,0.4881
1008.0,0.4857
1009.0,0.4834
1010.0,0.4815
1011.0,0.4856
1012.0,0.4816
1013.0,0.4843
1014.0,0.4809
1015.0,0.4778
1016.0,0.4757
1017.0,0.4769
1018.0,0.475
1019.0,0.4654
1020.0,0.4725
1021.0,0.4718
1022.0,0.4683
1023.0,0.4733
1024.0,0.4677
1025.0,0.4728
1026.0,0.4709
1027.0,0.4698
1028.0,0.4689
1029.0,0.4634
1030.0,0.4664
1031.0,0.4646
1032.0,0.4632
1033.0,0.4562
1034.0,0.4562
1035.0,0.4576
1036.0,0.4601
1037.0,0.4526
1038.0,0.4546
1039.0,0.4544
1040.0,0.4525
1041.0,0.4544
1042.0,0.4512
1043.0,0.4498
1044.0,0.4514
1045.0,0.4453
1046.0,0.4405
1047.0,0.4445
1048.0,0.4469
1049.0,0.4454
1050.0,0.4434
1051.0,0.4428
1052.0,0.441
1053.0,0.4376
1054.0,0.4386
1055.0,0.4389
1056.0,0.4375
1057.0,0.4362
1058.0,0.4255
1059.0,0.4261
1060.0,0.4255
1061.0,0.425
1062.0,0.4273
1063.0,0.4232
1064.0,0.4282
1065.0,0.4253
1066.0,0.4167
1067.0,0.4222
1068.0,0.4131
1069.0,0.4002
1070.0,0.414
1071.0,0.4199
1072.0,0.4154
1073.0,0.4094
1074.0,0.4194
1075.0,0.3999
1076.0,0.4191
1077.0,0.4125
1078.0,0.405
1079.0,0.4122
1080.0,0.4061
1081.0,0.3938
1082.0,0.3989
1083.0,0.3998
1084.0,0.3933
1085.0,0.4069
1086.0,0.3737
1087.0,0.384
1088.0,0.3997
1089.0,0.3888
1090.0,0.3812
1091.0,0.3987
1092.0,0.3974
1093.0,0.3413
1094.0,0.3641
1095.0,0.355
1096.0,0.3412
1097.0,0.3881
1098.0,0.3363
1099.0,0.3501
1100.0,0.3274
1101.0,0.3309
1102.0,0.3173
1103.0,0.315
1104.0,0.3153
1105.0,0.3425
1106.0,0.2695
1107.0,0.3268
1108.0,0.2815
1109.0,0.2811
1110.0,0.3245
1111.0,0.2262
1112.0,0.2786
1113.0,0.1837
1114.0,0.2045
1115.0,0.1698
1116.0,0.1394
1117.0,0.05557
1118.0,0.1503
1119.0,0.07798
1120.0,0.09829
1121.0,0.1283
1122.0,0.05697
1123.0,0.0887
1124.0,0.07491
1125.0,0.0969
1126.0,0.03671
1127.0,0.109
1128.0,0.06843
1129.0,0.07212
1130.0,0.04884
1131.0,0.1993
1132.0,0.1577
1133.0,0.104
1134.0,0.02906
1135.0,0.01077
1136.0,0.08818
1137.0,0.1969
1138.0,0.1396
1139.0,0.2007
1140.0,0.1706
1141.0,0.1327
1142.0,0.151
1143.0,0.2113
1144.0,0.07766
1145.0,0.1002
1146.0,0.1081
1147.0,0.04114
1148.0,0.183
1149.0,0.1484
1150.0,0.08328
1151.0,0.1386
1152.0,0.1678
1153.0,0.1615
1154.0,0.0977
1155.0,0.2094
1156.0,0.1901
1157.0,0.211
1158.0,0.2087
1159.0,0.2231
1160.0,0.193
1161.0,0.2333
1162.0,0.2348
1163.0,0.3094
1164.0,0.2682
1165.0,0.2557
1166.0,0.2521
1167.0,0.2731
1168.0,0.2767
1169.0,0.2822
1170.0,0.3044
1171.0,0.2972
1172.0,0.3012
1173.0,0.3038
1174.0,0.2234
1175.0,0.2957
1176.0,0.3219
1177.0,0.3111
1178.0,0.2386
1179.0,0.3244
1180.0,0.2931
1181.0,0.3021
1182.0,0.2139
1183.0,0.2967
1184.0,0.2798
1185.0,0.2716
1186.0,0.3167
1187.0,0.3033
1188.0,0.218
1189.0,0.2829
1190.0,0.3094
1191.0,0.2967
1192.0,0.3134
1193.0,0.3014
1194.0,0.3099
1195.0,0.2952
1196.0,0.2856
1197.0,0.309
1198.0,0.2842
1199.0,0.2464
1200.0,0.2978
1201.0,0.2888
1202.0,0.2861
1203.0,0.2839
1204.0,0.2508
1205.0,0.2914
1206.0,0.3193
1207.0,0.2859
1208.0,0.28
1209.0,0.2854
1210.0,0.2962
1211.0,0.2839
1212.0,0.2826
1213.0,0.3098
1214.0,0.2883
1215.0,0.2833
1216.0,0.3087
1217.0,0.3015
1218.0,0.3063
1219.0,0.303
1220.0,0.3065
1221.0,0.3091
1222.0,0.3016
1223.0,0.2991
1224.0,0.298
1225.0,0.3071
1226.0,0.3086
1227.0,0.287
1228.0,0.3096
1229.0,0.3086
1230.0,0.3038
1231.0,0.3109
1232.0,0.3091
1233.0,0.3004
1234.0,0.3103
1235.0,0.3086
1236.0,0.3106
1237.0,0.3071
1238.0,0.3096
1239.0,0.3056
1240.0,0.3067
1241.0,0.3057
1242.0,0.3046
1243.0,0.3021
1244.0,0.3044
1245.0,0.3056
1246.0,0.3038
1247.0,0.3028
1248.0,0.3028
1249.0,0.3035
1250.0,0.3018
1251.0,0.2982
1252.0,0.2979
1253.0,0.2962
1254.0,0.2937
1255.0,0.2978
1256.0,0.2906
1257.0,0.2893
1258.0,0.2937
1259.0,0.285
1260.0,0.2862
1261.0,0.2725
1262.0,0.2656
1263.0,0.2662
1264.0,0.2486
1265.0,0.2644
1266.0,0.2562
1267.0,0.2595
1268.0,0.248
1269.0,0.1669
1270.0,0.259
1271.0,0.2713
1272.0,0.2719
1273.0,0.2693
1274.0,0.2698
1275.0,0.2733
1276.0,0.2755
1277.0,0.2768
1278.0,0.2811
1279.0,0.2787
1280.0,0.2751
1281.0,0.262
1282.0,0.2518
1283.0,0.2713
1284.0,0.2779
1285.0,0.2797
1286.0,0.283
1287.0,0.2794
1288.0,0.2791
1289.0,0.2718
1290.0,0.2766
1291.0,0.2802
1292.0,0.266
1293.0,0.2754
1294.0,0.2736
1295.0,0.273
1296.0,0.2624
1297.0,0.2496
1298.0,0.2659
1299.0,0.2755
1300.0,0.2381
1301.0,0.2444
1302.0,0.2649
1303.0,0.2344
1304.0,0.2045
1305.0,0.2598
1306.0,0.2601
1307.0,0.2073
1308.0,0.234
1309.0,0.2585
1310.0,0.2036
1311.0,0.2254
1312.0,0.22
1313.0,0.2165
1314.0,0.1954
1315.0,0.1939
1316.0,0.2226
1317.0,0.2114
1318.0,0.2279
1319.0,0.1835
1320.0,0.1766
1321.0,0.2039
1322.0,0.2067
1323.0,0.16
1324.0,0.1799
1325.0,0.2197
1326.0,0.1914
1327.0,0.1832
1328.0,0.1594
1329.0,0.1235
1330.0,0.1588
1331.0,0.1004
1332.0,0.1021
1333.0,0.141
1334.0,0.1174
1335.0,0.1594
1336.0,0.1283
1337.0,0.1148
1338.0,0.1241
1339.0,0.1229
1340.0,0.1184
1341.0,0.1182
1342.0,0.124
1343.0,0.08952
1344.0,0.0534
1345.0,0.07647
1346.0,0.04172
1347.0,0.04306
1348.0,0.003547
1349.0,0.01187
1350.0,0.01173
1351.0,0.003528
1352.0,0.001189
1353.0,7.869e-05
1354.0,0.0002307
1355.0,3.129e-06
1356.0,3.928e-05
1357.0,5.934e-05
1358.0,3.629e-06
1359.0,6.704e-07
1360.0,1.903e-06
1361.0,4.858e-09
1362.0,1.927e-11
1363.0,2.841e-06
1364.0,1.223e-06
1365.0,1.047e-11
1366.0,1.12e-05
1367.0,4.361e-06
1368.0,1.937e-13
1369.0,4.694e-07
1370.0,2.717e-07
1371.0,1.904e-08
1372.0,2.406e-06
1373.0,3.715e-05
1374.0,0.0001443
1375.0,0.0002617
1376.0,0.0002058
1377.0,9.84e-05
1378.0,0.0008786
1379.0,4.179e-05
1380.0,6.678e-05
1381.0,1.972e-06
1382.0,2.27e-06
1383.0,4.014e-08
1384.0,5.646e-07
1385.0,1.801e-06
1386.0,2.255e-06
1387.0,0.0001649
1388.0,3.37e-06
1389.0,0.000463
1390.0,0.000398
1391.0,0.0002776
1392.0,1.944e-05
1393.0,9.321e-05
1394.0,6.361e-05
1395.0,5.88e-07
1396.0,6.282e-09
1397.0,3.998e-05
1398.0,0.001002
1399.0,0.0006356
1400.0,3.352e-09
1401.0,1.045e-08
1402.0,0.001401
1403.0,0.001836
1404.0,0.0005708
1405.0,3.289e-07
1406.0,0.001592
1407.0,0.0001359
1408.0,0.001288
1409.0,0.0004935
1410.0,0.000367
1411.0,0.001603
1412.0,0.002032
1413.0,0.01727
1414.0,0.0002854
1415.0,0.0001462
1416.0,0.02571
1417.0,0.008683
1418.0,0.009963
1419.0,0.001592
1420.0,0.006134
1421.0,0.006681
1422.0,0.03329
1423.0,0.006699
1424.0,0.01234
1425.0,0.01846
1426.0,0.02014
1427.0,0.03517
1428.0,0.003391
1429.0,0.02712
1430.0,0.0442
1431.0,0.04804
1432.0,0.002694
1433.0,0.03127
1434.0,0.01626
1435.0,0.01746
1436.0,0.03178
1437.0,0.02436
1438.0,0.01082
1439.0,0.04238
1440.0,0.03184
1441.0,0.02517
1442.0,0.02774
1443.0,0.03347
1444.0,0.04576
1445.0,0.0369
1446.0,0.01693
1447.0,0.02663
1448.0,0.08239
1449.0,0.0726
1450.0,0.01971
1451.0,0.008181
1452.0,0.04471
1453.0,0.0581
1454.0,0.09613
1455.0,0.04667
