interpolation:linear
wavelength,value
280.0,1.8379999999999997e-22
280.5,6.078e-21
281.0,3.2660000000000006e-20
281.5,3.871e-19
282.0,5.956e-19
282.5,1.473e-18
283.0,4.656e-18
283.5,7.586e-18
284.0,1.253e-16
284.5,3.665e-16
285.0,6.031e-16
285.5,3.004e-15
286.0,1.212e-14
286.5,5.465e-14
287.0,1.571e-13
287.5,6.069e-13
288.0,2.148e-12
288.5,6.387e-12
289.0,1.684e-11
289.5,5.052e-11
290.0,1.398e-10
290.5,2.847e-10
291.0,6.107e-10
291.5,1.753e-09
292.0,3.514e-09
292.5,4.93e-09
293.0,1.057e-08
293.5,2.572e-08
294.0,4.024e-08
294.5,5.482e-08
295.0,9.289e-08
295.5,1.536e-07
296.0,2.969e-07
296.5,4.159e-07
297.0,5.634e-07
297.5,1.515e-06
298.0,2.393e-06
298.5,2.41e-06
299.0,5.322e-06
299.5,8.861e-06
300.0,9.755e-06
300.5,1.414e-05
301.0,2.559e-05
301.5,4.073e-05
302.0,3.476e-05
302.5,6.949e-05
303.0,0.0001291
303.5,0.0001674
304.0,0.0001628
304.5,0.0002667
305.0,0.000463
305.5,0.0005791
306.0,0.00058
306.5,0.0007654
307.0,0.001294
307.5,0.001954
308.0,0.002108
308.5,0.002653
309.0,0.002853
309.5,0.003702
310.0,0.003939
310.5,0.006563
311.0,0.00863
311.5,0.0085
312.0,0.009394
312.5,0.01221
313.0,0.01371
313.5,0.01289
314.0,0.01744
314.5,0.01716
315.0,0.02296
315.5,0.01827
316.0,0.01735
316.5,0.02678
317.0,0.0332
317.5,0.03385
318.0,0.02774
318.5,0.03783
319.0,0.04706
319.5,0.03556
320.0,0.04248
320.5,0.05849
321.0,0.05675
321.5,0.05488
322.0,0.05336
322.5,0.04664
323.0,0.04932
323.5,0.06434
324.0,0.07585
324.5,0.07512
325.0,0.06273
325.5,0.08468
326.0,0.1054
326.5,0.109
327.0,0.1074
327.5,0.1022
328.0,0.08726
328.5,0.09655
329.0,0.1204
329.5,0.1385
330.0,0.1383
330.5,0.1073
331.0,0.1082
331.5,0.1126
332.0,0.1259
332.5,0.1265
333.0,0.125
333.5,0.1104
334.0,0.1126
334.5,0.1338
335.0,0.1278
335.5,0.1501
336.0,0.1039
336.5,0.1201
337.0,0.09743
337.5,0.1207
338.0,0.1207
338.5,0.1404
339.0,0.1392
339.5,0.1338
340.0,0.1563
340.5,0.1413
341.0,0.1385
341.5,0.1276
342.0,0.1527
342.5,0.143
343.0,0.1571
343.5,0.1478
344.0,0.1087
344.5,0.1102
345.0,0.1464
345.5,0.1498
346.0,0.1275
346.5,0.1446
347.0,0.155
347.5,0.1254
348.0,0.1433
348.5,0.1434
349.0,0.1332
349.5,0.132
350.0,0.1634
350.5,0.1724
351.0,0.154
351.5,0.1494
352.0,0.1608
352.5,0.1257
353.0,0.1586
353.5,0.1697
354.0,0.1763
354.5,0.1789
355.0,0.1783
355.5,0.1613
356.0,0.1689
356.5,0.1443
357.0,0.1193
357.5,0.1461
358.0,0.1159
358.5,0.09906
359.0,0.1386
359.5,0.1766
360.0,0.1873
360.5,0.1498
361.0,0.1368
361.5,0.1577
362.0,0.1365
362.5,0.1892
363.0,0.1701
363.5,0.1569
364.0,0.192
364.5,0.1642
365.0,0.1674
365.5,0.2102
366.0,0.223
366.5,0.2097
367.0,0.2044
367.5,0.2122
368.0,0.1859
368.5,0.1877
369.0,0.2029
369.5,0.2164
370.0,0.2309
370.5,0.1794
371.0,0.1918
371.5,0.2401
372.0,0.1595
372.5,0.1913
373.0,0.1948
373.5,0.1269
374.0,0.1845
374.5,0.1529
375.0,0.1488
375.5,0.2222
376.0,0.1843
376.5,0.1911
377.0,0.2025
377.5,0.2371
378.0,0.2572
378.5,0.2432
379.0,0.2008
379.5,0.1835
380.0,0.1909
380.5,0.2314
381.0,0.2321
381.5,0.1842
382.0,0.1638
382.5,0.1398
383.0,0.1296
383.5,0.1249
384.0,0.1379
384.5,0.203
385.0,0.2014
385.5,0.1878
386.0,0.161
386.5,0.2117
387.0,0.176
387.5,0.1978
388.0,0.1828
388.5,0.1808
389.0,0.1953
389.5,0.2368
390.0,0.2378
390.5,0.219
391.0,0.2581
391.5,0.2634
392.0,0.222
392.5,0.1989
393.0,0.1108
393.5,0.08061
394.0,0.1641
394.5,0.2089
395.0,0.255
395.5,0.2592
396.0,0.2249
396.5,0.1316
397.0,0.09887
397.5,0.2012
398.0,0.2819
398.5,0.2916
399.0,0.3161
399.5,0.3153
400.0,0.3275
401.0,0.3299
402.0,0.3487
403.0,0.3318
404.0,0.3272
405.0,0.3275
406.0,0.3228
407.0,0.3181
408.0,0.3308
409.0,0.3545
410.0,0.3103
411.0,0.3366
412.0,0.3622
413.0,0.3535
414.0,0.3584
415.0,0.36
416.0,0.3669
417.0,0.3582
418.0,0.352
419.0,0.3572
420.0,0.356
421.0,0.3729
422.0,0.3548
423.0,0.347
424.0,0.3673
425.0,0.3671
426.0,0.3583
427.0,0.352
428.0,0.3432
429.0,0.3258
430.0,0.2855
431.0,0.283
432.0,0.3661
433.0,0.3685
434.0,0.3424
435.0,0.3578
436.0,0.4039
437.0,0.3992
438.0,0.364
439.0,0.376
440.0,0.3885
441.0,0.4032
442.0,0.4327
443.0,0.4214
444.0,0.4312
445.0,0.422
446.0,0.4036
447.0,0.4372
448.0,0.4437
449.0,0.4465
450.0,0.4595
451.0,0.4769
452.0,0.4599
453.0,0.4331
454.0,0.4528
455.0,0.4557
456.0,0.4669
457.0,0.4748
458.0,0.4583
459.0,0.4562
460.0,0.4573
461.0,0.4681
462.0,0.4724
463.0,0.4692
464.0,0.4624
465.0,0.4575
466.0,0.4627
467.0,0.454
468.0,0.4595
469.0,0.462
470.0,0.4472
471.0,0.4469
472.0,0.471
473.0,0.4649
474.0,0.4651
475.0,0.4684
476.0,0.4536
477.0,0.4543
478.0,0.4672
479.0,0.4648
480.0,0.4662
481.0,0.4757
482.0,0.479
483.0,0.4742
484.0,0.4651
485.0,0.4437
486.0,0.3886
487.0,0.4078
488.0,0.4474
489.0,0.4486
490.0,0.4724
491.0,0.4647
492.0,0.439
493.0,0.4536
494.0,0.4582
495.0,0.4623
496.0,0.4652
497.0,0.4723
498.0,0.4501
499.0,0.4555
500.0,0.4418
501.0,0.4331
502.0,0.4259
503.0,0.4421
504.0,0.4277
505.0,0.4455
506.0,0.4599
507.0,0.4378
508.0,0.4252
509.0,0.4379
510.0,0.4363
511.0,0.4487
512.0,0.4539
513.0,0.4298
514.0,0.4271
515.0,0.4229
516.0,0.4217
517.0,0.3749
518.0,0.3941
519.0,0.4133
520.0,0.4282
521.0,0.4321
522.0,0.4322
523.0,0.4242
524.0,0.4388
525.0,0.4431
526.0,0.423
527.0,0.3979
528.0,0.4203
529.0,0.4425
530.0,0.4358
531.0,0.442
532.0,0.4267
533.0,0.4142
534.0,0.4267
535.0,0.4364
536.0,0.4408
537.0,0.4238
538.0,0.4315
539.0,0.4278
540.0,0.41
541.0,0.4117
542.0,0.4241
543.0,0.4204
544.0,0.4268
545.0,0.4257
546.0,0.4268
547.0,0.4273
548.0,0.4225
549.0,0.4241
550.0,0.4292
551.0,0.4241
552.0,0.427
553.0,0.4193
554.0,0.4292
555.0,0.4298
556.0,0.4241
557.0,0.4106
558.0,0.407
559.0,0.3988
560.0,0.4035
561.0,0.4082
562.0,0.4046
563.0,0.4149
564.0,0.403
565.0,0.3991
566.0,0.3927
567.0,0.3995
568.0,0.3942
569.0,0.3816
570.0,0.3819
571.0,0.3804
572.0,0.3874
573.0,0.3911
574.0,0.3893
575.0,0.3813
576.0,0.3779
577.0,0.3823
578.0,0.3775
579.0,0.3806
580.0,0.3902
581.0,0.3941
582.0,0.4032
583.0,0.4055
584.0,0.4099
585.0,0.4004
586.0,0.3923
587.0,0.3999
588.0,0.3861
589.0,0.3342
590.0,0.3501
591.0,0.3752
592.0,0.3677
593.0,0.3768
594.0,0.3727
595.0,0.3605
596.0,0.3812
597.0,0.3754
598.0,0.3764
599.0,0.3776
600.0,0.3798
601.0,0.3779
602.0,0.3755
603.0,0.3824
604.0,0.3891
605.0,0.3875
606.0,0.3866
607.0,0.3912
608.0,0.3876
609.0,0.3889
610.0,0.3869
611.0,0.3893
612.0,0.3887
613.0,0.3841
614.0,0.3795
615.0,0.3884
616.0,0.3761
617.0,0.3757
618.0,0.3906
619.0,0.3868
620.0,0.3893
621.0,0.3891
622.0,0.3841
623.0,0.3778
624.0,0.3718
625.0,0.371
626.0,0.3763
627.0,0.3789
628.0,0.3355
629.0,0.3635
630.0,0.3545
631.0,0.3688
632.0,0.3656
633.0,0.3793
634.0,0.3777
635.0,0.3847
636.0,0.3808
637.0,0.388
638.0,0.3931
639.0,0.3895
640.0,0.3867
641.0,0.3871
642.0,0.3861
643.0,0.3914
644.0,0.391
645.0,0.3912
646.0,0.3798
647.0,0.3701
648.0,0.3707
649.0,0.3628
650.0,0.3712
651.0,0.3885
652.0,0.3658
653.0,0.3838
654.0,0.38
655.0,0.3625
656.0,0.3237
657.0,0.3328
658.0,0.3751
659.0,0.3786
660.0,0.3807
661.0,0.3837
662.0,0.3833
663.0,0.3761
664.0,0.3825
665.0,0.3842
666.0,0.3851
667.0,0.3855
668.0,0.3864
669.0,0.3929
670.0,0.3915
671.0,0.3918
672.0,0.3887
673.0,0.3949
674.0,0.3938
675.0,0.3905
676.0,0.3935
677.0,0.3899
678.0,0.3912
679.0,0.3852
680.0,0.3884
681.0,0.386
682.0,0.3855
683.0,0.3849
684.0,0.3829
685.0,0.3865
686.0,0.3839
687.0,0.1801
688.0,0.2425
689.0,0.2445
690.0,0.2683
691.0,0.2965
692.0,0.3193
693.0,0.316
694.0,0.3152
695.0,0.338
696.0,0.3391
697.0,0.371
698.0,0.365
699.0,0.3486
700.0,0.344
701.0,0.3374
702.0,0.3428
703.0,0.3442
704.0,0.3599
705.0,0.3604
706.0,0.3618
707.0,0.3628
708.0,0.3634
709.0,0.3671
710.0,0.3654
711.0,0.3661
712.0,0.3665
713.0,0.3613
714.0,0.3632
715.0,0.3485
716.0,0.3479
717.0,0.274
718.0,0.2495
719.0,0.2264
720.0,0.2343
721.0,0.2741
722.0,0.3306
723.0,0.2995
724.0,0.2594
725.0,0.2521
726.0,0.2646
727.0,0.2754
728.0,0.2502
729.0,0.2691
730.0,0.2824
731.0,0.2685
732.0,0.2974
733.0,0.3241
734.0,0.3349
735.0,0.3263
736.0,0.3254
737.0,0.3268
738.0,0.3394
739.0,0.3329
740.0,0.3438
741.0,0.3418
742.0,0.3435
743.0,0.3527
744.0,0.3526
745.0,0.3534
746.0,0.355
747.0,0.356
748.0,0.3553
749.0,0.3514
750.0,0.3512
751.0,0.3477
752.0,0.3493
753.0,0.3512
754.0,0.352
755.0,0.3499
756.0,0.3499
757.0,0.3504
758.0,0.3459
759.0,0.3339
760.0,0.01307
761.0,0.004453
762.0,0.09822
763.0,0.02749
764.0,0.05753
765.0,0.09799
766.0,0.1482
767.0,0.222
768.0,0.289
769.0,0.3031
770.0,0.3227
771.0,0.3295
772.0,0.3315
773.0,0.3342
774.0,0.3328
775.0,0.3305
776.0,0.3347
777.0,0.3303
778.0,0.3283
779.0,0.3285
780.0,0.3268
781.0,0.3272
782.0,0.3293
783.0,0.3237
784.0,0.3254
785.0,0.3227
786.0,0.3259
787.0,0.3164
788.0,0.3108
789.0,0.3106
790.0,0.2974
791.0,0.3049
792.0,0.3035
793.0,0.298
794.0,0.3081
795.0,0.312
796.0,0.2954
797.0,0.2951
798.0,0.3108
799.0,0.3075
800.0,0.3005
801.0,0.2979
802.0,0.2969
803.0,0.2937
804.0,0.295
805.0,0.2961
806.0,0.308
807.0,0.3035
808.0,0.3041
809.0,0.2956
810.0,0.2916
811.0,0.2885
812.0,0.2752
813.0,0.2677
814.0,0.2228
815.0,0.2224
816.0,0.2053
817.0,0.2097
818.0,0.199
819.0,0.2332
820.0,0.2159
821.0,0.2687
822.0,0.2584
823.0,0.1517
824.0,0.2446
825.0,0.2642
826.0,0.2487
827.0,0.268
828.0,0.2115
829.0,0.2484
830.0,0.2439
831.0,0.2448
832.0,0.2345
833.0,0.2566
834.0,0.2427
835.0,0.2783
836.0,0.2583
837.0,0.2792
838.0,0.2664
839.0,0.2755
840.0,0.2826
841.0,0.2769
842.0,0.2801
843.0,0.2828
844.0,0.2774
845.0,0.2888
846.0,0.288
847.0,0.2835
848.0,0.2805
849.0,0.2725
850.0,0.2612
851.0,0.2752
852.0,0.2739
853.0,0.2647
854.0,0.2277
855.0,0.2514
856.0,0.2742
857.0,0.2812
858.0,0.2787
859.0,0.2795
860.0,0.2804
861.0,0.2788
862.0,0.2833
863.0,0.29
864.0,0.2756
865.0,0.2733
866.0,0.2458
867.0,0.2565
868.0,0.2792
869.0,0.2734
870.0,0.2813
871.0,0.2774
872.0,0.2765
873.0,0.276
874.0,0.2727
875.0,0.2671
876.0,0.2698
877.0,0.2727
878.0,0.2754
879.0,0.2712
880.0,0.2654
881.0,0.2608
882.0,0.2662
883.0,0.2677
884.0,0.2662
885.0,0.2682
886.0,0.2533
887.0,0.2578
888.0,0.2607
889.0,0.2655
890.0,0.2609
891.0,0.2617
892.0,0.251
893.0,0.2403
894.0,0.2254
895.0,0.2051
896.0,0.1913
897.0,0.1555
898.0,0.1738
899.0,0.1226
900.0,0.1837
901.0,0.1285
902.0,0.1635
903.0,0.1604
904.0,0.2235
905.0,0.2131
906.0,0.1969
907.0,0.1455
908.0,0.1514
909.0,0.1693
910.0,0.1393
911.0,0.1567
912.0,0.1641
913.0,0.1408
914.0,0.1418
915.0,0.1526
916.0,0.1279
917.0,0.1725
918.0,0.1302
919.0,0.1794
920.0,0.1895
921.0,0.1964
922.0,0.1678
923.0,0.1907
924.0,0.1696
925.0,0.1666
926.0,0.1669
927.0,0.1945
928.0,0.1208
929.0,0.1046
930.0,0.07348
931.0,0.06958
932.0,0.04191
933.0,0.0308
934.0,0.01083
935.0,0.034
936.0,0.01699
937.0,0.0171
938.0,0.02245
939.0,0.06718
940.0,0.08726
941.0,0.05792
942.0,0.07098
943.0,0.04085
944.0,0.04901
945.0,0.06149
946.0,0.02378
947.0,0.05966
948.0,0.04314
949.0,0.08776
950.0,0.01459
951.0,0.08727
952.0,0.03753
953.0,0.05463
954.0,0.07419
955.0,0.05606
956.0,0.06235
957.0,0.03715
958.0,0.09613
959.0,0.06689
960.0,0.07502
961.0,0.09178
962.0,0.08653
963.0,0.1065
964.0,0.09569
965.0,0.1058
966.0,0.1051
967.0,0.1036
968.0,0.1667
969.0,0.1696
970.0,0.1535
971.0,0.1881
972.0,0.1771
973.0,0.1417
974.0,0.1337
975.0,0.1426
976.0,0.1284
977.0,0.1609
978.0,0.1467
979.0,0.157
980.0,0.146
981.0,0.1873
982.0,0.1744
983.0,0.165
984.0,0.1989
985.0,0.1735
986.0,0.2062
987.0,0.198
988.0,0.198
989.0,0.208
990.0,0.1967
991.0,0.2082
992.0,0.2098
993.0,0.201
994.0,0.2102
995.0,0.2106
996.0,0.209
997.0,0.2096
998.0,0.2084
999.0,0.2078
1000.0,0.2053
1001.0,0.2091
1002.0,0.199
1003.0,0.2051
1004.0,0.1989
1005.0,0.1932
1006.0,0.2
1007.0,0.2046
1008.0,0.2028
1009.0,0.2008
1010.0,0.1996
1011.0,0.2037
1012.0,0.2012
1013.0,0.2035
1014.0,0.202
1015.0,0.2006
1016.0,0.1996
1017.0,0.1999
1018.0,0.1997
1019.0,0.1938
1020.0,0.1984
1021.0,0.1984
1022.0,0.1963
1023.0,0.1983
1024.0,0.194
1025.0,0.1987
1026.0,0.1974
1027.0,0.197
1028.0,0.1965
1029.0,0.194
1030.0,0.1959
1031.0,0.1949
1032.0,0.1945
1033.0,0.1916
1034.0,0.1916
1035.0,0.1922
1036.0,0.193
1037.0,0.19
1038.0,0.1907
1039.0,0.1905
1040.0,0.1897
1041.0,0.1903
1042.0,0.189
1043.0,0.1883
1044.0,0.1888
1045.0,0.1862
1046.0,0.184
1047.0,0.1855
1048.0,0.1864
1049.0,0.1856
1050.0,0.1846
1051.0,0.1842
1052.0,0.1833
1053.0,0.1816
1054.0,0.1818
1055.0,0.1816
1056.0,0.1807
1057.0,0.1799
1058.0,0.1752
1059.0,0.1751
1060.0,0.1747
1061.0,0.1744
1062.0,0.175
1063.0,0.1731
1064.0,0.1752
1065.0,0.1733
1066.0,0.1704
1067.0,0.1724
1068.0,0.1682
1069.0,0.1634
1070.0,0.1685
1071.0,0.1726
1072.0,0.1695
1073.0,0.1673
1074.0,0.1733
1075.0,0.1605
1076.0,0.1729
1077.0,0.1675
1078.0,0.1632
1079.0,0.1709
1080.0,0.165
1081.0,0.1575
1082.0,0.1637
1083.0,0.1652
1084.0,0.1564
1085.0,0.1657
1086.0,0.1458
1087.0,0.154
1088.0,0.1643
1089.0,0.1551
1090.0,0.1498
1091.0,0.1627
1092.0,0.163
1093.0,0.1279
1094.0,0.1478
1095.0,0.1336
1096.0,0.1252
1097.0,0.1593
1098.0,0.1216
1099.0,0.1283
1100.0,0.1155
1101.0,0.1184
1102.0,0.1102
1103.0,0.1072
1104.0,0.1076
1105.0,0.1245
1106.0,0.07967
1107.0,0.1154
1108.0,0.08857
1109.0,0.09016
1110.0,0.1123
1111.0,0.06394
1112.0,0.09004
1113.0,0.04599
1114.0,0.05178
1115.0,0.04198
1116.0,0.02798
1117.0,0.005999
1118.0,0.03162
1119.0,0.01153
1120.0,0.01387
1121.0,0.02041
1122.0,0.005643
1123.0,0.01269
1124.0,0.01065
1125.0,0.01493
1126.0,0.002594
1127.0,0.01711
1128.0,0.007061
1129.0,0.007753
1130.0,0.004651
1131.0,0.04231
1132.0,0.03113
1133.0,0.01459
1134.0,0.001945
1135.0,0.0008458
1136.0,0.01058
1137.0,0.03948
1138.0,0.02676
1139.0,0.05245
1140.0,0.03893
1141.0,0.02561
1142.0,0.03159
1143.0,0.05055
1144.0,0.01248
1145.0,0.01402
1146.0,0.01507
1147.0,0.002842
1148.0,0.04284
1149.0,0.03082
1150.0,0.0146
1151.0,0.02657
1152.0,0.03676
1153.0,0.03918
1154.0,0.01404
1155.0,0.05457
1156.0,0.04648
1157.0,0.05796
1158.0,0.05709
1159.0,0.06426
1160.0,0.05291
1161.0,0.07272
1162.0,0.07223
1163.0,0.1121
1164.0,0.09102
1165.0,0.08069
1166.0,0.08452
1167.0,0.09449
1168.0,0.09442
1169.0,0.09797
1170.0,0.1111
1171.0,0.1082
1172.0,0.1133
1173.0,0.111
1174.0,0.06924
1175.0,0.1113
1176.0,0.1288
1177.0,0.1191
1178.0,0.08177
1179.0,0.1298
1180.0,0.109
1181.0,0.1127
1182.0,0.06889
1183.0,0.1123
1184.0,0.1022
1185.0,0.09581
1186.0,0.123
1187.0,0.1141
1188.0,0.06835
1189.0,0.1059
1190.0,0.121
1191.0,0.1086
1192.0,0.1233
1193.0,0.116
1194.0,0.121
1195.0,0.1102
1196.0,0.1039
1197.0,0.1227
1198.0,0.1105
1199.0,0.08547
1200.0,0.1145
1201.0,0.1072
1202.0,0.1094
1203.0,0.1067
1204.0,0.08989
1205.0,0.1142
1206.0,0.1304
1207.0,0.1078
1208.0,0.1087
1209.0,0.1114
1210.0,0.118
1211.0,0.1094
1212.0,0.1032
1213.0,0.1236
1214.0,0.1074
1215.0,0.1049
1216.0,0.1238
1217.0,0.1189
1218.0,0.1226
1219.0,0.1201
1220.0,0.123
1221.0,0.1252
1222.0,0.1213
1223.0,0.1194
1224.0,0.1168
1225.0,0.1241
1226.0,0.1263
1227.0,0.1119
1228.0,0.1279
1229.0,0.1263
1230.0,0.1233
1231.0,0.1298
1232.0,0.1289
1233.0,0.1205
1234.0,0.1306
1235.0,0.1292
1236.0,0.1306
1237.0,0.1272
1238.0,0.1302
1239.0,0.1285
1240.0,0.1292
1241.0,0.1275
1242.0,0.1282
1243.0,0.1272
1244.0,0.1278
1245.0,0.1285
1246.0,0.1278
1247.0,0.127
1248.0,0.1264
1249.0,0.1272
1250.0,0.1262
1251.0,0.1239
1252.0,0.1247
1253.0,0.1222
1254.0,0.1199
1255.0,0.1242
1256.0,0.118
1257.0,0.1168
1258.0,0.1211
1259.0,0.1125
1260.0,0.1136
1261.0,0.1022
1262.0,0.0965
1263.0,0.09655
1264.0,0.08341
1265.0,0.09603
1266.0,0.08897
1267.0,0.09292
1268.0,0.08437
1269.0,0.03313
1270.0,0.09164
1271.0,0.1025
1272.0,0.1034
1273.0,0.1017
1274.0,0.1028
1275.0,0.1052
1276.0,0.1072
1277.0,0.1093
1278.0,0.1134
1279.0,0.1123
1280.0,0.111
1281.0,0.1069
1282.0,0.1046
1283.0,0.1123
1284.0,0.1147
1285.0,0.1157
1286.0,0.1182
1287.0,0.1147
1288.0,0.1152
1289.0,0.1083
1290.0,0.1143
1291.0,0.1165
1292.0,0.1037
1293.0,0.1129
1294.0,0.1119
1295.0,0.1094
1296.0,0.101
1297.0,0.0932
1298.0,0.1056
1299.0,0.1136
1300.0,0.08755
1301.0,0.09166
1302.0,0.1055
1303.0,0.0872
1304.0,0.06685
1305.0,0.1029
1306.0,0.102
1307.0,0.07106
1308.0,0.08868
1309.0,0.09979
1310.0,0.06896
1311.0,0.0832
1312.0,0.07998
1313.0,0.07645
1314.0,0.06565
1315.0,0.0632
1316.0,0.08041
1317.0,0.07502
1318.0,0.08486
1319.0,0.05739
1320.0,0.05726
1321.0,0.06993
1322.0,0.06889
1323.0,0.04483
1324.0,0.05668
1325.0,0.07816
1326.0,0.06271
1327.0,0.05851
1328.0,0.04794
1329.0,0.03015
1330.0,0.04243
1331.0,0.01976
1332.0,0.02195
1333.0,0.03163
1334.0,0.03087
1335.0,0.04396
1336.0,0.03123
1337.0,0.02686
1338.0,0.02862
1339.0,0.02923
1340.0,0.03021
1341.0,0.02526
1342.0,0.02713
1343.0,0.01248
1344.0,0.008047
1345.0,0.01107
1346.0,0.003051
1347.0,0.002733
1348.0,5.583e-05
1349.0,0.0002565
1350.0,0.0003151
1351.0,2.69e-05
1352.0,2.167e-06
1353.0,6.982e-08
1354.0,3.562e-07
1355.0,1.45e-09
1356.0,3.388e-08
1357.0,5.108e-08
1358.0,1.716e-09
1359.0,2.036e-10
1360.0,7.525e-10
1361.0,8.187e-13
1362.0,2.239e-15
1363.0,9.908e-10
1364.0,4.108e-10
1365.0,7.817e-16
1366.0,4.32e-09
1367.0,1.804e-09
1368.0,6.036e-18
1369.0,1.515e-10
1370.0,7.401e-11
1371.0,4.185e-12
1372.0,9.836e-10
1373.0,2.221e-08
1374.0,1.303e-07
1375.0,2.108e-07
1376.0,3.258e-07
1377.0,1.37e-07
1378.0,1.364e-06
1379.0,6.004e-08
1380.0,5.949e-08
1381.0,1.437e-09
1382.0,8.529e-10
1383.0,1.263e-11
1384.0,1.633e-10
1385.0,8.693e-10
1386.0,7.391e-10
1387.0,1.034e-07
1388.0,2.445e-09
1389.0,5.198e-07
1390.0,4.133e-07
1391.0,2.755e-07
1392.0,1.828e-08
1393.0,1.184e-07
1394.0,3.397e-08
1395.0,2.359e-10
1396.0,1.066e-12
1397.0,3.949e-08
1398.0,1.338e-06
1399.0,9.008e-07
1400.0,4.556e-13
1401.0,1.892e-12
1402.0,9.339e-06
1403.0,8.396e-06
1404.0,2.13e-06
1405.0,1.075e-10
1406.0,3.436e-06
1407.0,6.336e-07
1408.0,3.093e-06
1409.0,6.031e-07
1410.0,8.709e-07
1411.0,7.935e-06
1412.0,1.571e-05
1413.0,0.0003866
1414.0,7.724e-07
1415.0,2.872e-07
1416.0,0.001463
1417.0,0.0002519
1418.0,0.000191
1419.0,2.607e-05
1420.0,0.0001146
1421.0,0.0001713
1422.0,0.001901
1423.0,0.0003357
1424.0,0.00075
1425.0,0.000876
1426.0,0.001422
