interpolation:linear
wavelength,value
280.0,3.992e-21
280.5,1.24e-19
281.0,6.521e-19
281.5,4.343e-19
282.0,1.201e-18
282.5,3.13e-18
283.0,1.005e-17
283.5,1.641e-17
284.0,2.639e-16
284.5,7.579e-16
285.0,1.662e-15
285.5,8.211e-15
286.0,3.296e-14
286.5,1.458e-13
287.0,4.13e-13
287.5,1.562e-12
288.0,4.048e-12
288.5,1.373e-11
289.0,3.963e-11
289.5,1.272e-10
290.0,3.669e-10
290.5,7.684e-10
291.0,1.694e-09
291.5,5.275e-09
292.0,1.154e-08
292.5,1.761e-08
293.0,4.203e-08
293.5,1.187e-07
294.0,2.067e-07
294.5,2.682e-07
295.0,5.059e-07
295.5,1.366e-06
296.0,2.736e-06
296.5,3.987e-06
297.0,5.593e-06
297.5,1.589e-05
298.0,2.64e-05
298.5,2.773e-05
299.0,6.392e-05
299.5,0.0001151
300.0,0.000133
300.5,0.0002035
301.0,0.0004059
301.5,0.000719
302.0,0.0006561
302.5,0.001288
303.0,0.002328
303.5,0.002942
304.0,0.00277
304.5,0.004153
305.0,0.006327
305.5,0.007265
306.0,0.007039
306.5,0.008776
307.0,0.01305
307.5,0.01736
308.0,0.01834
308.5,0.02167
309.0,0.0213
309.5,0.02434
310.0,0.02444
310.5,0.03958
311.0,0.04966
311.5,0.04794
312.0,0.04787
312.5,0.05819
313.0,0.06309
313.5,0.06131
314.0,0.07655
314.5,0.06773
315.0,0.08899
315.5,0.07454
316.0,0.06498
316.5,0.09315
317.0,0.1157
317.5,0.1205
318.0,0.09387
318.5,0.1162
319.0,0.1378
319.5,0.1126
320.0,0.1361
320.5,0.1698
321.0,0.1508
321.5,0.1446
322.0,0.1546
322.5,0.1345
323.0,0.1337
323.5,0.164
324.0,0.1914
324.5,0.1945
325.0,0.1682
325.5,0.216
326.0,0.264
326.5,0.264
327.0,0.2633
327.5,0.2546
328.0,0.2272
328.5,0.2382
329.0,0.2847
329.5,0.323
330.0,0.3261
330.5,0.2614
331.0,0.2666
331.5,0.2706
332.0,0.2919
332.5,0.2886
333.0,0.2879
333.5,0.261
334.0,0.2675
334.5,0.3082
335.0,0.2894
335.5,0.3381
336.0,0.234
336.5,0.2742
337.0,0.2251
337.5,0.2801
338.0,0.2732
338.5,0.3154
339.0,0.3122
339.5,0.3004
340.0,0.3531
340.5,0.3183
341.0,0.3105
341.5,0.2851
342.0,0.3408
342.5,0.319
343.0,0.3508
343.5,0.3304
344.0,0.2443
344.5,0.2467
345.0,0.3266
345.5,0.3335
346.0,0.2835
346.5,0.3211
347.0,0.3448
347.5,0.2789
348.0,0.318
348.5,0.3179
349.0,0.295
349.5,0.2922
350.0,0.3614
350.5,0.3813
351.0,0.3407
351.5,0.3312
352.0,0.3558
352.5,0.2777
353.0,0.3499
353.5,0.3743
354.0,0.3886
354.5,0.3942
355.0,0.3929
355.5,0.3551
356.0,0.3716
356.5,0.3173
357.0,0.2622
357.5,0.3211
358.0,0.2545
358.5,0.2175
359.0,0.3043
359.5,0.3879
360.0,0.4113
360.5,0.3288
361.0,0.2998
361.5,0.3453
362.0,0.2988
362.5,0.4136
363.0,0.3716
363.5,0.3424
364.0,0.4189
364.5,0.3581
365.0,0.3648
365.5,0.458
366.0,0.4854
366.5,0.4562
367.0,0.4444
367.5,0.4613
368.0,0.4038
368.5,0.4075
369.0,0.4402
369.5,0.4693
370.0,0.5004
370.5,0.3885
371.0,0.4152
371.5,0.5196
372.0,0.3449
372.5,0.4137
373.0,0.4209
373.5,0.274
374.0,0.3982
374.5,0.3298
375.0,0.3207
375.5,0.4789
376.0,0.3971
376.5,0.4116
377.0,0.4359
377.5,0.5101
378.0,0.553
378.5,0.5228
379.0,0.4315
379.5,0.3942
380.0,0.41
380.5,0.4967
381.0,0.4979
381.5,0.3948
382.0,0.3507
382.5,0.2991
383.0,0.277
383.5,0.2668
384.0,0.2944
384.5,0.4332
385.0,0.4297
385.5,0.4003
386.0,0.3429
386.5,0.4506
387.0,0.3745
387.5,0.4207
388.0,0.3885
388.5,0.3841
389.0,0.4148
389.5,0.5025
390.0,0.5044
390.5,0.4643
391.0,0.5467
391.5,0.5577
392.0,0.4698
392.5,0.4207
393.0,0.2342
393.5,0.1703
394.0,0.3466
394.5,0.4407
395.0,0.5379
395.5,0.5465
396.0,0.4739
396.5,0.2771
397.0,0.208
397.5,0.4232
398.0,0.5927
398.5,0.6127
399.0,0.6637
399.5,0.6616
400.0,0.6871
401.0,0.6968
402.0,0.7354
403.0,0.6989
404.0,0.6884
405.0,0.6886
406.0,0.6777
407.0,0.667
408.0,0.6932
409.0,0.7422
410.0,0.6488
411.0,0.703
412.0,0.7554
413.0,0.7368
414.0,0.7461
415.0,0.7484
416.0,0.7617
417.0,0.7432
418.0,0.7297
419.0,0.7395
420.0,0.7364
421.0,0.7707
422.0,0.7327
423.0,0.7159
424.0,0.7573
425.0,0.7562
426.0,0.7369
427.0,0.7233
428.0,0.7047
429.0,0.6677
430.0,0.5845
431.0,0.5794
432.0,0.7484
433.0,0.7527
434.0,0.699
435.0,0.7301
436.0,0.8229
437.0,0.8121
438.0,0.7397
439.0,0.765
440.0,0.7896
441.0,0.8184
442.0,0.8778
443.0,0.8551
444.0,0.8738
445.0,0.855
446.0,0.8162
447.0,0.8826
448.0,0.8963
449.0,0.9002
450.0,0.9255
451.0,0.96
452.0,0.925
453.0,0.8702
454.0,0.9086
455.0,0.9143
456.0,0.9361
457.0,0.9518
458.0,0.9193
459.0,0.9147
460.0,0.9172
461.0,0.9383
462.0,0.9457
463.0,0.9393
464.0,0.924
465.0,0.9125
466.0,0.9215
467.0,0.9046
468.0,0.9153
469.0,0.9202
470.0,0.8908
471.0,0.8898
472.0,0.9375
473.0,0.9254
474.0,0.9267
475.0,0.9345
476.0,0.9065
477.0,0.909
478.0,0.9343
479.0,0.9287
480.0,0.9306
481.0,0.9481
482.0,0.9532
483.0,0.9418
484.0,0.9226
485.0,0.8791
486.0,0.7686
487.0,0.8056
488.0,0.8839
489.0,0.8866
490.0,0.9328
491.0,0.9168
492.0,0.8658
493.0,0.8942
494.0,0.9032
495.0,0.9109
496.0,0.9166
497.0,0.9308
498.0,0.8872
499.0,0.8986
500.0,0.8723
501.0,0.8563
502.0,0.8441
503.0,0.8783
504.0,0.8555
505.0,0.8865
506.0,0.9152
507.0,0.8709
508.0,0.8439
509.0,0.8677
510.0,0.8632
511.0,0.8865
512.0,0.8962
513.0,0.8482
514.0,0.8425
515.0,0.8341
516.0,0.832
517.0,0.7394
518.0,0.7773
519.0,0.8153
520.0,0.8449
521.0,0.8529
522.0,0.8536
523.0,0.8383
524.0,0.8682
525.0,0.8783
526.0,0.839
527.0,0.7905
528.0,0.8359
529.0,0.8811
530.0,0.8684
531.0,0.8812
532.0,0.8509
533.0,0.826
534.0,0.8505
535.0,0.8691
536.0,0.8771
537.0,0.8426
538.0,0.8575
539.0,0.8503
540.0,0.8152
541.0,0.8204
542.0,0.8461
543.0,0.8373
544.0,0.8517
545.0,0.8491
546.0,0.8527
547.0,0.8524
548.0,0.8423
549.0,0.8449
550.0,0.8549
551.0,0.8446
552.0,0.8504
553.0,0.8352
554.0,0.8552
555.0,0.8568
556.0,0.8457
557.0,0.8193
558.0,0.8131
559.0,0.7978
560.0,0.8077
561.0,0.8181
562.0,0.8121
563.0,0.8342
564.0,0.8114
565.0,0.8043
566.0,0.7924
567.0,0.8073
568.0,0.7998
569.0,0.7802
570.0,0.7801
571.0,0.7756
572.0,0.7938
573.0,0.8022
574.0,0.7996
575.0,0.7845
576.0,0.7774
577.0,0.7859
578.0,0.7743
579.0,0.7776
580.0,0.7928
581.0,0.7972
582.0,0.8125
583.0,0.8148
584.0,0.822
585.0,0.802
586.0,0.7855
587.0,0.8026
588.0,0.7823
589.0,0.6917
590.0,0.7235
591.0,0.7664
592.0,0.7563
593.0,0.7681
594.0,0.7625
595.0,0.7432
596.0,0.7736
597.0,0.765
598.0,0.7633
599.0,0.7642
600.0,0.7656
601.0,0.7596
602.0,0.7544
603.0,0.767
604.0,0.7798
605.0,0.7758
606.0,0.7727
607.0,0.7805
608.0,0.772
609.0,0.7735
610.0,0.7681
611.0,0.7722
612.0,0.77
613.0,0.7603
614.0,0.7501
615.0,0.7665
616.0,0.7413
617.0,0.7399
618.0,0.7684
619.0,0.7607
620.0,0.7655
621.0,0.7661
622.0,0.7571
623.0,0.7455
624.0,0.7328
625.0,0.7311
626.0,0.7419
627.0,0.75
628.0,0.6971
629.0,0.7311
630.0,0.7141
631.0,0.7314
632.0,0.7228
633.0,0.7452
634.0,0.7383
635.0,0.75
636.0,0.7403
637.0,0.7526
638.0,0.7601
639.0,0.7517
640.0,0.7445
641.0,0.7442
642.0,0.7409
643.0,0.7509
644.0,0.7486
645.0,0.7498
646.0,0.7319
647.0,0.7223
648.0,0.7229
649.0,0.7088
650.0,0.7134
651.0,0.7446
652.0,0.7123
653.0,0.7347
654.0,0.7267
655.0,0.699
656.0,0.6199
657.0,0.6367
658.0,0.7139
659.0,0.7192
660.0,0.7222
661.0,0.7273
662.0,0.7286
663.0,0.7143
664.0,0.7231
665.0,0.7239
666.0,0.7246
667.0,0.724
668.0,0.7245
669.0,0.7357
670.0,0.7326
671.0,0.7325
672.0,0.7263
673.0,0.7373
674.0,0.7346
675.0,0.7279
676.0,0.733
677.0,0.7258
678.0,0.7279
679.0,0.7161
680.0,0.7219
681.0,0.7172
682.0,0.7163
683.0,0.7149
684.0,0.7113
685.0,0.7175
686.0,0.7131
687.0,0.4593
688.0,0.5449
689.0,0.5471
690.0,0.5761
691.0,0.609
692.0,0.6332
693.0,0.6278
694.0,0.6227
695.0,0.6502
696.0,0.6511
697.0,0.6932
698.0,0.6823
699.0,0.6646
700.0,0.6565
701.0,0.6494
702.0,0.6544
703.0,0.6557
704.0,0.6775
705.0,0.6785
706.0,0.6783
707.0,0.6789
708.0,0.6803
709.0,0.6818
710.0,0.6815
711.0,0.6808
712.0,0.679
713.0,0.6719
714.0,0.6745
715.0,0.6527
716.0,0.6529
717.0,0.5611
718.0,0.5146
719.0,0.4709
720.0,0.4928
721.0,0.5472
722.0,0.6294
723.0,0.5842
724.0,0.5243
725.0,0.5152
726.0,0.5396
727.0,0.5486
728.0,0.5137
729.0,0.5348
730.0,0.5657
731.0,0.5408
732.0,0.5804
733.0,0.6162
734.0,0.6314
735.0,0.618
736.0,0.6172
737.0,0.6196
738.0,0.6305
739.0,0.6181
740.0,0.6346
741.0,0.6285
742.0,0.6293
743.0,0.6454
744.0,0.6437
745.0,0.644
746.0,0.6469
747.0,0.6484
748.0,0.647
749.0,0.6397
750.0,0.6393
751.0,0.6328
752.0,0.6356
753.0,0.6388
754.0,0.6402
755.0,0.6366
756.0,0.6363
757.0,0.6372
758.0,0.6293
759.0,0.6157
760.0,0.08895
761.0,0.04429
762.0,0.299
763.0,0.1408
764.0,0.2191
765.0,0.299
766.0,0.3746
767.0,0.4805
768.0,0.5609
769.0,0.5742
770.0,0.5954
771.0,0.6009
772.0,0.6024
773.0,0.6067
774.0,0.6038
775.0,0.5993
776.0,0.6066
777.0,0.5986
778.0,0.5949
779.0,0.5954
780.0,0.5921
781.0,0.5927
782.0,0.5965
783.0,0.5861
784.0,0.5889
785.0,0.5845
786.0,0.5909
787.0,0.5799
788.0,0.5724
789.0,0.5721
790.0,0.556
791.0,0.5617
792.0,0.5577
793.0,0.5486
794.0,0.5589
795.0,0.5681
796.0,0.5494
797.0,0.55
798.0,0.5673
799.0,0.5634
800.0,0.5533
801.0,0.5513
802.0,0.5497
803.0,0.5454
804.0,0.5463
805.0,0.5449
806.0,0.5609
807.0,0.5539
808.0,0.5545
809.0,0.5436
810.0,0.5389
811.0,0.5388
812.0,0.5226
813.0,0.5112
814.0,0.4469
815.0,0.4443
816.0,0.4132
817.0,0.421
818.0,0.4046
819.0,0.4548
820.0,0.4274
821.0,0.5031
822.0,0.4881
823.0,0.3265
824.0,0.4727
825.0,0.4942
826.0,0.4744
827.0,0.5018
828.0,0.4221
829.0,0.4717
830.0,0.4652
831.0,0.467
832.0,0.452
833.0,0.4826
834.0,0.4644
835.0,0.5126
836.0,0.4891
837.0,0.5141
838.0,0.4973
839.0,0.5065
840.0,0.5178
841.0,0.5101
842.0,0.5117
843.0,0.512
844.0,0.5046
845.0,0.522
846.0,0.5198
847.0,0.5103
848.0,0.5069
849.0,0.4925
850.0,0.4719
851.0,0.4993
852.0,0.496
853.0,0.4776
854.0,0.4122
855.0,0.4531
856.0,0.4951
857.0,0.5063
858.0,0.5025
859.0,0.503
860.0,0.504
861.0,0.5012
862.0,0.5091
863.0,0.5212
864.0,0.4951
865.0,0.4908
866.0,0.4413
867.0,0.4606
868.0,0.5012
869.0,0.4908
870.0,0.5048
871.0,0.4979
872.0,0.4962
873.0,0.4952
874.0,0.4893
875.0,0.4794
876.0,0.4843
877.0,0.4893
878.0,0.4945
879.0,0.4869
880.0,0.4765
881.0,0.4692
882.0,0.4793
883.0,0.481
884.0,0.4787
885.0,0.4823
886.0,0.4592
887.0,0.4644
888.0,0.471
889.0,0.4768
890.0,0.4723
891.0,0.4718
892.0,0.4574
893.0,0.4423
894.0,0.4252
895.0,0.3998
896.0,0.3759
897.0,0.3203
898.0,0.3509
899.0,0.2639
900.0,0.3609
901.0,0.2766
902.0,0.3287
903.0,0.3306
904.0,0.422
905.0,0.4066
906.0,0.3799
907.0,0.3047
908.0,0.3113
909.0,0.339
910.0,0.2965
911.0,0.3182
912.0,0.3333
913.0,0.3008
914.0,0.2988
915.0,0.324
916.0,0.2735
917.0,0.3506
918.0,0.2802
919.0,0.358
920.0,0.3636
921.0,0.3784
922.0,0.3358
923.0,0.3657
924.0,0.3438
925.0,0.3364
926.0,0.3399
927.0,0.3829
928.0,0.2738
929.0,0.248
930.0,0.1917
931.0,0.1821
932.0,0.1278
933.0,0.1022
934.0,0.05254
935.0,0.106
936.0,0.06392
937.0,0.06456
938.0,0.08026
939.0,0.1763
940.0,0.2145
941.0,0.1587
942.0,0.1857
943.0,0.1196
944.0,0.1284
945.0,0.1643
946.0,0.08023
947.0,0.1641
948.0,0.1201
949.0,0.2231
950.0,0.05693
951.0,0.2203
952.0,0.1139
953.0,0.15
954.0,0.1873
955.0,0.1521
956.0,0.1498
957.0,0.1137
958.0,0.2167
959.0,0.1684
960.0,0.1888
961.0,0.2148
962.0,0.2029
963.0,0.2365
964.0,0.2159
965.0,0.2358
966.0,0.2353
967.0,0.234
968.0,0.3231
969.0,0.3365
970.0,0.3079
971.0,0.3565
972.0,0.3402
973.0,0.2921
974.0,0.2767
975.0,0.2888
976.0,0.272
977.0,0.314
978.0,0.2964
979.0,0.3117
980.0,0.2923
981.0,0.3546
982.0,0.3375
983.0,0.3232
984.0,0.3671
985.0,0.3363
986.0,0.3746
987.0,0.3661
988.0,0.3655
989.0,0.3742
990.0,0.3632
991.0,0.3752
992.0,0.3774
993.0,0.3678
994.0,0.3775
995.0,0.3772
996.0,0.3753
997.0,0.3759
998.0,0.3741
999.0,0.3728
1000.0,0.3699
1001.0,0.3748
1002.0,0.3633
1003.0,0.3681
1004.0,0.3588
1005.0,0.3461
1006.0,0.3594
1007.0,0.3671
1008.0,0.3649
1009.0,0.3627
1010.0,0.3611
1011.0,0.3653
1012.0,0.3619
1013.0,0.3645
1014.0,0.3619
1015.0,0.3595
1016.0,0.3578
1017.0,0.3587
1018.0,0.3575
1019.0,0.3494
1020.0,0.3555
1021.0,0.3551
1022.0,0.3522
1023.0,0.3559
1024.0,0.3508
1025.0,0.3558
1026.0,0.3542
1027.0,0.3534
1028.0,0.3526
1029.0,0.3484
1030.0,0.351
1031.0,0.3495
1032.0,0.3485
1033.0,0.3433
1034.0,0.3433
1035.0,0.3444
1036.0,0.3461
1037.0,0.3405
1038.0,0.342
1039.0,0.3418
1040.0,0.3404
1041.0,0.3417
1042.0,0.3393
1043.0,0.3382
1044.0,0.3394
1045.0,0.3347
1046.0,0.331
1047.0,0.3339
1048.0,0.3357
1049.0,0.3345
1050.0,0.3329
1051.0,0.3324
1052.0,0.331
1053.0,0.3283
1054.0,0.329
1055.0,0.3291
1056.0,0.3278
1057.0,0.3268
1058.0,0.3187
1059.0,0.3189
1060.0,0.3184
1061.0,0.318
1062.0,0.3196
1063.0,0.3164
1064.0,0.3202
1065.0,0.3177
1066.0,0.3115
1067.0,0.3155
1068.0,0.3085
1069.0,0.2991
1070.0,0.3091
1071.0,0.3143
1072.0,0.3104
1073.0,0.306
1074.0,0.3143
1075.0,0.2973
1076.0,0.314
1077.0,0.3077
1078.0,0.3016
1079.0,0.3092
1080.0,0.303
1081.0,0.2926
1082.0,0.2984
1083.0,0.2996
1084.0,0.2916
1085.0,0.3038
1086.0,0.2754
1087.0,0.2855
1088.0,0.299
1089.0,0.2887
1090.0,0.2816
1091.0,0.2977
1092.0,0.2972
1093.0,0.2486
1094.0,0.2715
1095.0,0.2594
1096.0,0.2474
1097.0,0.2904
1098.0,0.2431
1099.0,0.2542
1100.0,0.2348
1101.0,0.2382
1102.0,0.2266
1103.0,0.2237
1104.0,0.2241
1105.0,0.248
1106.0,0.1841
1107.0,0.2345
1108.0,0.1954
1109.0,0.1964
1110.0,0.2319
1111.0,0.1528
1112.0,0.1952
1113.0,0.1197
1114.0,0.1342
1115.0,0.111
1116.0,0.08592
1117.0,0.02876
1118.0,0.09437
1119.0,0.04449
1120.0,0.0558
1121.0,0.07545
1122.0,0.02976
1123.0,0.05053
1124.0,0.04261
1125.0,0.05617
1126.0,0.0176
1127.0,0.06354
1128.0,0.03586
1129.0,0.03833
1130.0,0.02449
1131.0,0.1259
1132.0,0.09772
1133.0,0.05903
1134.0,0.01355
1135.0,0.005172
1136.0,0.04823
1137.0,0.1226
1138.0,0.08584
1139.0,0.1338
1140.0,0.1096
1141.0,0.08162
1142.0,0.09504
1143.0,0.1374
1144.0,0.04525
1145.0,0.05699
1146.0,0.06143
1147.0,0.01961
1148.0,0.1187
1149.0,0.0931
1150.0,0.04901
1151.0,0.08514
1152.0,0.1068
1153.0,0.1057
1154.0,0.05501
1155.0,0.1394
1156.0,0.1244
1157.0,0.1415
1158.0,0.14
1159.0,0.1523
1160.0,0.1288
1161.0,0.1617
1162.0,0.1622
1163.0,0.2241
1164.0,0.1904
1165.0,0.1779
1166.0,0.178
1167.0,0.1947
1168.0,0.1965
1169.0,0.2017
1170.0,0.2207
1171.0,0.215
1172.0,0.2198
1173.0,0.2202
1174.0,0.1538
1175.0,0.2158
1176.0,0.239
1177.0,0.2282
1178.0,0.1689
1179.0,0.2409
1180.0,0.2132
1181.0,0.2201
1182.0,0.1492
1183.0,0.2172
1184.0,0.2026
1185.0,0.1947
1186.0,0.2335
1187.0,0.2216
1188.0,0.1514
1189.0,0.2063
1190.0,0.2283
1191.0,0.2153
1192.0,0.2316
1193.0,0.2214
1194.0,0.2286
1195.0,0.2152
1196.0,0.2066
1197.0,0.2292
1198.0,0.2091
1199.0,0.1757
1200.0,0.2186
1201.0,0.2101
1202.0,0.2094
1203.0,0.2074
1204.0,0.1803
1205.0,0.2149
1206.0,0.2385
1207.0,0.2086
1208.0,0.2059
1209.0,0.2103
1210.0,0.2196
1211.0,0.2083
1212.0,0.2048
1213.0,0.2301
1214.0,0.2102
1215.0,0.206
1216.0,0.2295
1217.0,0.223
1218.0,0.2276
1219.0,0.2246
1220.0,0.2278
1221.0,0.2303
1222.0,0.2242
1223.0,0.2219
1224.0,0.2202
1225.0,0.2288
1226.0,0.2306
1227.0,0.2117
1228.0,0.232
1229.0,0.2307
1230.0,0.2265
1231.0,0.2336
1232.0,0.2322
1233.0,0.2234
1234.0,0.2336
1235.0,0.232
1236.0,0.2338
1237.0,0.2302
1238.0,0.233
1239.0,0.23
1240.0,0.2309
1241.0,0.2296
1242.0,0.2293
1243.0,0.2274
1244.0,0.229
1245.0,0.23
1246.0,0.2287
1247.0,0.2277
1248.0,0.2275
1249.0,0.2283
1250.0,0.2268
1251.0,0.2238
1252.0,0.224
1253.0,0.2219
1254.0,0.2195
1255.0,0.2237
1256.0,0.2169
1257.0,0.2156
1258.0,0.22
1259.0,0.2112
1260.0,0.2124
1261.0,0.1995
1262.0,0.1929
1263.0,0.1933
1264.0,0.1771
1265.0,0.1921
1266.0,0.184
1267.0,0.1878
1268.0,0.1773
1269.0,0.1046
1270.0,0.1869
1271.0,0.1989
1272.0,0.1997
1273.0,0.1975
1274.0,0.1983
1275.0,0.2013
1276.0,0.2035
1277.0,0.2051
1278.0,0.2095
1279.0,0.2075
1280.0,0.2049
1281.0,0.1957
1282.0,0.1889
1283.0,0.2034
1284.0,0.2082
1285.0,0.2096
1286.0,0.2126
1287.0,0.209
1288.0,0.2091
1289.0,0.2018
1290.0,0.2073
1291.0,0.2103
1292.0,0.1964
1293.0,0.2059
1294.0,0.2044
1295.0,0.2031
1296.0,0.1931
1297.0,0.1821
1298.0,0.1972
1299.0,0.2063
1300.0,0.1725
1301.0,0.1782
1302.0,0.1966
1303.0,0.1705
1304.0,0.1435
1305.0,0.1924
1306.0,0.1923
1307.0,0.1473
1308.0,0.1711
1309.0,0.1906
1310.0,0.1443
1311.0,0.1636
1312.0,0.1588
1313.0,0.1554
1314.0,0.1384
1315.0,0.1361
1316.0,0.1606
1317.0,0.1519
1318.0,0.166
1319.0,0.1273
1320.0,0.1239
1321.0,0.1451
1322.0,0.1461
1323.0,0.1079
1324.0,0.1249
1325.0,0.1582
1326.0,0.1345
1327.0,0.1279
1328.0,0.1096
1329.0,0.08045
1330.0,0.1057
1331.0,0.06158
1332.0,0.06432
1333.0,0.09002
1334.0,0.07742
1335.0,0.1074
1336.0,0.08377
1337.0,0.07351
1338.0,0.07953
1339.0,0.0795
1340.0,0.07795
1341.0,0.07466
1342.0,0.07856
1343.0,0.05039
1344.0,0.03038
1345.0,0.04389
1346.0,0.0201
1347.0,0.02014
1348.0,0.001088
1349.0,0.004113
1350.0,0.00443
1351.0,0.0009121
1352.0,0.0002041
1353.0,8.655e-06
1354.0,3.388e-05
1355.0,1.838e-07
1356.0,4.181e-06
1357.0,6.392e-06
1358.0,2.213e-07
1359.0,2.059e-08
1360.0,9.09e-08
1361.0,5.401e-11
1362.0,1.145e-13
1363.0,1.109e-07
1364.0,4.575e-08
1365.0,2.834e-14
1366.0,5.253e-07
1367.0,2.298e-07
1368.0,1.124e-16
1369.0,1.689e-08
1370.0,7.33e-09
1371.0,3.585e-10
1372.0,1.269e-07
1373.0,3.136e-06
1374.0,1.676e-05
1375.0,3.007e-05
1376.0,3.074e-05
1377.0,1.367e-05
1378.0,0.0001414
1379.0,5.734e-06
1380.0,7.549e-06
1381.0,1.829e-07
1382.0,1.103e-07
1383.0,1.491e-09
1384.0,1.811e-08
1385.0,1.211e-07
1386.0,8.97e-08
1387.0,1.585e-05
1388.0,3.177e-07
1389.0,6.326e-05
1390.0,5.412e-05
1391.0,3.52e-05
1392.0,2.204e-06
1393.0,1.26e-05
1394.0,5.152e-06
1395.0,3.264e-08
1396.0,8.492e-11
1397.0,4.749e-06
1398.0,0.000156
1399.0,9.96e-05
1400.0,3.094e-11
1401.0,1.625e-10
1402.0,0.0003401
1403.0,0.0004109
1404.0,0.000123
1405.0,1.424e-08
1406.0,0.0002991
1407.0,2.803e-05
1408.0,0.0002478
1409.0,7.412e-05
1410.0,6.452e-05
1411.0,0.0003643
1412.0,0.0005197
1413.0,0.006295
1414.0,5.172e-05
1415.0,2.354e-05
1416.0,0.01156
1417.0,0.003113
1418.0,0.003457
1419.0,0.0005215
1420.0,0.002103
1421.0,0.002296
1422.0,0.01516
1423.0,0.002843
1424.0,0.005442
1425.0,0.007804
1426.0,0.009339
1427.0,0.01825
1428.0,0.001005
1429.0,0.01309
1430.0,0.02377
1431.0,0.02648
1432.0,0.0007838
1433.0,0.01634
1434.0,0.008065
1435.0,0.007233
1436.0,0.01523
1437.0,0.0117
