interpolation:linear
wavelength,value
280.0,8.265e-23
280.5,2.7610000000000002e-21
281.0,1.491e-20
281.5,4.814e-19
282.0,5.204e-19
282.5,1.249e-18
283.0,3.903e-18
283.5,6.348e-18
284.0,1.045e-16
284.5,3.064e-16
285.0,5.9e-16
285.5,2.773e-15
286.0,1.107e-14
286.5,4.923e-14
287.0,1.408e-13
287.5,5.422e-13
288.0,1.883e-12
288.5,5.447e-12
289.0,1.415e-11
289.5,4.209e-11
290.0,1.161e-10
290.5,2.364e-10
291.0,5.073e-10
291.5,1.458e-09
292.0,2.962e-09
292.5,4.131e-09
293.0,8.797e-09
293.5,2.122e-08
294.0,3.31e-08
294.5,4.287e-08
295.0,7.227e-08
295.5,1.227e-07
296.0,2.326e-07
296.5,3.193e-07
297.0,4.247e-07
297.5,1.108e-06
298.0,1.701e-06
298.5,1.674e-06
299.0,3.606e-06
299.5,5.727e-06
300.0,6.127e-06
300.5,8.611e-06
301.0,1.479e-05
301.5,2.237e-05
302.0,1.859e-05
302.5,3.592e-05
303.0,6.404e-05
303.5,8.098e-05
304.0,7.792e-05
304.5,0.0001243
305.0,0.000208
305.5,0.0002542
306.0,0.0002523
306.5,0.0003281
307.0,0.0005373
307.5,0.0007878
308.0,0.0008452
308.5,0.001048
309.0,0.001236
309.5,0.001683
310.0,0.001832
310.5,0.003087
311.0,0.004135
311.5,0.004105
312.0,0.004726
312.5,0.006312
313.0,0.007188
313.5,0.006668
314.0,0.009322
314.5,0.009585
315.0,0.01293
315.5,0.01006
316.0,0.009908
316.5,0.01578
317.0,0.01955
317.5,0.01974
318.0,0.01653
318.5,0.02349
319.0,0.02984
319.5,0.02179
320.0,0.02588
320.5,0.03719
321.0,0.0375
321.5,0.0364
322.0,0.03394
322.5,0.02972
323.0,0.03228
323.5,0.04412
324.0,0.05228
324.5,0.05107
325.0,0.04122
325.5,0.05689
326.0,0.07288
326.5,0.07662
327.0,0.075
327.5,0.0708
328.0,0.05904
328.5,0.06716
329.0,0.08556
329.5,0.09897
330.0,0.09833
330.5,0.07502
331.0,0.07519
331.5,0.07921
332.0,0.09009
332.5,0.09123
333.0,0.08975
333.5,0.07821
334.0,0.07963
334.5,0.09595
335.0,0.09245
335.5,0.1091
336.0,0.07549
336.5,0.08647
337.0,0.06968
337.5,0.08612
338.0,0.08713
338.5,0.102
339.0,0.1012
339.5,0.09729
340.0,0.1128
340.5,0.1021
341.0,0.1007
341.5,0.09289
342.0,0.1112
342.5,0.1042
343.0,0.1143
343.5,0.1075
344.0,0.07857
344.5,0.08004
345.0,0.1065
345.5,0.109
346.0,0.09285
346.5,0.1053
347.0,0.1128
347.5,0.09119
348.0,0.1043
348.5,0.1045
349.0,0.09706
349.5,0.09613
350.0,0.119
350.5,0.1256
351.0,0.1121
351.5,0.1086
352.0,0.1169
352.5,0.09149
353.0,0.1155
353.5,0.1236
354.0,0.1285
354.5,0.1303
355.0,0.1299
355.5,0.1175
356.0,0.123
356.5,0.1051
357.0,0.08686
357.5,0.1064
358.0,0.08439
358.5,0.07216
359.0,0.1009
359.5,0.1285
360.0,0.1364
360.5,0.1091
361.0,0.09959
361.5,0.1148
362.0,0.09945
362.5,0.1378
363.0,0.1239
363.5,0.1143
364.0,0.1399
364.5,0.1196
365.0,0.1219
365.5,0.1531
366.0,0.1624
366.5,0.1528
367.0,0.1489
367.5,0.1546
368.0,0.1354
368.5,0.1367
369.0,0.1478
369.5,0.1577
370.0,0.1682
370.5,0.1307
371.0,0.1398
371.5,0.175
372.0,0.1162
372.5,0.1395
373.0,0.142
373.5,0.09248
374.0,0.1345
374.5,0.1115
375.0,0.1085
375.5,0.162
376.0,0.1344
376.5,0.1393
377.0,0.1477
377.5,0.1729
378.0,0.1875
378.5,0.1774
379.0,0.1464
379.5,0.1338
380.0,0.1392
380.5,0.1688
381.0,0.1694
381.5,0.1344
382.0,0.1195
382.5,0.102
383.0,0.09457
383.5,0.09118
384.0,0.1007
384.5,0.1482
385.0,0.1471
385.5,0.1372
386.0,0.1176
386.5,0.1546
387.0,0.1286
387.5,0.1445
388.0,0.1336
388.5,0.1322
389.0,0.1428
389.5,0.1731
390.0,0.1739
390.5,0.1602
391.0,0.1887
391.5,0.1926
392.0,0.1624
392.5,0.1455
393.0,0.08107
393.5,0.05899
394.0,0.1201
394.5,0.1529
395.0,0.1867
395.5,0.1898
396.0,0.1647
396.5,0.09641
397.0,0.07243
397.5,0.1474
398.0,0.2065
398.5,0.2137
399.0,0.2317
399.5,0.2312
400.0,0.2401
401.0,0.241
402.0,0.2549
403.0,0.2426
404.0,0.2393
405.0,0.2396
406.0,0.2362
407.0,0.2329
408.0,0.2422
409.0,0.2597
410.0,0.2273
411.0,0.2467
412.0,0.2656
413.0,0.2593
414.0,0.263
415.0,0.2642
416.0,0.2694
417.0,0.2631
418.0,0.2587
419.0,0.2626
420.0,0.2618
421.0,0.2743
422.0,0.2611
423.0,0.2554
424.0,0.2703
425.0,0.2703
426.0,0.264
427.0,0.2594
428.0,0.253
429.0,0.2403
430.0,0.2107
431.0,0.2089
432.0,0.2703
433.0,0.2722
434.0,0.253
435.0,0.2644
436.0,0.2986
437.0,0.2953
438.0,0.2693
439.0,0.2782
440.0,0.2875
441.0,0.2984
442.0,0.3204
443.0,0.312
444.0,0.3194
445.0,0.3126
446.0,0.2993
447.0,0.3244
448.0,0.3292
449.0,0.3315
450.0,0.3413
451.0,0.3543
452.0,0.3418
453.0,0.322
454.0,0.3368
455.0,0.339
456.0,0.3474
457.0,0.3533
458.0,0.3409
459.0,0.3394
460.0,0.3401
461.0,0.3482
462.0,0.3516
463.0,0.3493
464.0,0.3445
465.0,0.3412
466.0,0.3452
467.0,0.3388
468.0,0.3429
469.0,0.3447
470.0,0.3337
471.0,0.3335
472.0,0.3515
473.0,0.347
474.0,0.347
475.0,0.3493
476.0,0.338
477.0,0.3382
478.0,0.3479
479.0,0.3462
480.0,0.3474
481.0,0.3547
482.0,0.3574
483.0,0.3541
484.0,0.3475
485.0,0.3318
486.0,0.2908
487.0,0.3054
488.0,0.335
489.0,0.3359
490.0,0.3538
491.0,0.3482
492.0,0.329
493.0,0.34
494.0,0.3436
495.0,0.3467
496.0,0.3489
497.0,0.3543
498.0,0.3376
499.0,0.3416
500.0,0.3311
501.0,0.3244
502.0,0.3186
503.0,0.3303
504.0,0.3186
505.0,0.3327
506.0,0.3434
507.0,0.327
508.0,0.3179
509.0,0.3277
510.0,0.3267
511.0,0.3362
512.0,0.3402
513.0,0.3221
514.0,0.3202
515.0,0.317
516.0,0.3161
517.0,0.2811
518.0,0.2954
519.0,0.3098
520.0,0.3209
521.0,0.3238
522.0,0.3238
523.0,0.3177
524.0,0.3284
525.0,0.3313
526.0,0.3161
527.0,0.2971
528.0,0.3136
529.0,0.33
530.0,0.3249
531.0,0.3294
532.0,0.3179
533.0,0.3086
534.0,0.318
535.0,0.3254
536.0,0.3288
537.0,0.3162
538.0,0.322
539.0,0.3193
540.0,0.3059
541.0,0.3068
542.0,0.3159
543.0,0.3134
544.0,0.3179
545.0,0.3171
546.0,0.3176
547.0,0.3182
548.0,0.3148
549.0,0.3161
550.0,0.3199
551.0,0.3161
552.0,0.3183
553.0,0.3125
554.0,0.3198
555.0,0.3202
556.0,0.3159
557.0,0.3057
558.0,0.3029
559.0,0.2966
560.0,0.2999
561.0,0.3032
562.0,0.3003
563.0,0.3077
564.0,0.2987
565.0,0.2956
566.0,0.2907
567.0,0.2954
568.0,0.2909
569.0,0.2806
570.0,0.2809
571.0,0.28
572.0,0.2844
573.0,0.287
574.0,0.2855
575.0,0.2793
576.0,0.2769
577.0,0.2802
578.0,0.277
579.0,0.2798
580.0,0.2878
581.0,0.2913
582.0,0.2986
583.0,0.3007
584.0,0.3043
585.0,0.2975
586.0,0.2915
587.0,0.2968
588.0,0.2852
589.0,0.2444
590.0,0.2562
591.0,0.2762
592.0,0.2697
593.0,0.2775
594.0,0.2741
595.0,0.2639
596.0,0.2814
597.0,0.2764
598.0,0.2779
599.0,0.279
600.0,0.2812
601.0,0.2802
602.0,0.2786
603.0,0.2839
604.0,0.289
605.0,0.2879
606.0,0.2875
607.0,0.2912
608.0,0.2888
609.0,0.29
610.0,0.2887
611.0,0.2907
612.0,0.2904
613.0,0.2872
614.0,0.2839
615.0,0.2908
616.0,0.2818
617.0,0.2816
618.0,0.2929
619.0,0.2902
620.0,0.292
621.0,0.2918
622.0,0.2879
623.0,0.2832
624.0,0.2788
625.0,0.2781
626.0,0.282
627.0,0.2834
628.0,0.2444
629.0,0.2695
630.0,0.2625
631.0,0.2754
632.0,0.2735
633.0,0.2847
634.0,0.2842
635.0,0.2899
636.0,0.2873
637.0,0.2931
638.0,0.2976
639.0,0.2951
640.0,0.2933
641.0,0.2939
642.0,0.2935
643.0,0.2975
644.0,0.2975
645.0,0.2975
646.0,0.2881
647.0,0.2788
648.0,0.2797
649.0,0.2732
650.0,0.2821
651.0,0.2956
652.0,0.2762
653.0,0.2922
654.0,0.2895
655.0,0.2751
656.0,0.2463
657.0,0.2535
658.0,0.2865
659.0,0.2895
660.0,0.2913
661.0,0.2938
662.0,0.2932
663.0,0.2879
664.0,0.2933
665.0,0.2951
666.0,0.2959
667.0,0.2965
668.0,0.2975
669.0,0.3026
670.0,0.3017
671.0,0.3021
672.0,0.2998
673.0,0.3047
674.0,0.3039
675.0,0.3015
676.0,0.304
677.0,0.3013
678.0,0.3024
679.0,0.2978
680.0,0.3004
681.0,0.2985
682.0,0.2982
683.0,0.2977
684.0,0.2962
685.0,0.2991
686.0,0.2969
687.0,0.1177
688.0,0.1692
689.0,0.171
690.0,0.1917
691.0,0.2171
692.0,0.2383
693.0,0.2359
694.0,0.2367
695.0,0.2573
696.0,0.2585
697.0,0.2863
698.0,0.2816
699.0,0.2664
700.0,0.2627
701.0,0.2563
702.0,0.2615
703.0,0.2632
704.0,0.2768
705.0,0.277
706.0,0.2786
707.0,0.2797
708.0,0.2801
709.0,0.2841
710.0,0.2821
711.0,0.2831
712.0,0.284
713.0,0.2794
714.0,0.2811
715.0,0.2685
716.0,0.2679
717.0,0.2022
718.0,0.184
719.0,0.1662
720.0,0.1709
721.0,0.205
722.0,0.2527
723.0,0.2265
724.0,0.1929
725.0,0.1866
726.0,0.196
727.0,0.2063
728.0,0.1849
729.0,0.2019
730.0,0.2106
731.0,0.2
732.0,0.2251
733.0,0.2479
734.0,0.2573
735.0,0.2501
736.0,0.249
737.0,0.2503
738.0,0.2628
739.0,0.2579
740.0,0.2671
741.0,0.2659
742.0,0.2679
743.0,0.2752
744.0,0.2754
745.0,0.2764
746.0,0.2776
747.0,0.2784
748.0,0.278
749.0,0.2749
750.0,0.2748
751.0,0.2721
752.0,0.2734
753.0,0.2749
754.0,0.2755
755.0,0.2739
756.0,0.2739
757.0,0.2743
758.0,0.2707
759.0,0.2593
760.0,0.005976
761.0,0.002106
762.0,0.05843
763.0,0.01324
764.0,0.03086
765.0,0.05821
766.0,0.09694
767.0,0.1577
768.0,0.2181
769.0,0.2319
770.0,0.2505
771.0,0.2575
772.0,0.2596
773.0,0.2618
774.0,0.2609
775.0,0.2592
776.0,0.2625
777.0,0.2591
778.0,0.2575
779.0,0.2577
780.0,0.2564
781.0,0.2567
782.0,0.2584
783.0,0.2541
784.0,0.2555
785.0,0.2532
786.0,0.2556
787.0,0.2467
788.0,0.2417
789.0,0.2416
790.0,0.2297
791.0,0.2373
792.0,0.2365
793.0,0.2321
794.0,0.2416
795.0,0.2441
796.0,0.2287
797.0,0.2281
798.0,0.2429
799.0,0.2399
800.0,0.2339
801.0,0.2311
802.0,0.2302
803.0,0.2274
804.0,0.2287
805.0,0.2304
806.0,0.241
807.0,0.2373
808.0,0.2377
809.0,0.2301
810.0,0.2264
811.0,0.2233
812.0,0.2106
813.0,0.2046
814.0,0.1667
815.0,0.1669
816.0,0.1533
817.0,0.1565
818.0,0.1477
819.0,0.1762
820.0,0.1623
821.0,0.2075
822.0,0.1986
823.0,0.1097
824.0,0.1858
825.0,0.2042
826.0,0.1903
827.0,0.207
828.0,0.1582
829.0,0.1905
830.0,0.1869
831.0,0.1874
832.0,0.1785
833.0,0.1976
834.0,0.1857
835.0,0.2171
836.0,0.1983
837.0,0.2177
838.0,0.2062
839.0,0.2145
840.0,0.2204
841.0,0.2153
842.0,0.2188
843.0,0.2221
844.0,0.2173
845.0,0.2269
846.0,0.2265
847.0,0.2232
848.0,0.2204
849.0,0.2141
850.0,0.2053
851.0,0.2158
852.0,0.2151
853.0,0.2082
854.0,0.1787
855.0,0.1978
856.0,0.2156
857.0,0.2214
858.0,0.2193
859.0,0.2202
860.0,0.221
861.0,0.2197
862.0,0.2234
863.0,0.2286
864.0,0.2173
865.0,0.2155
866.0,0.1938
867.0,0.2023
868.0,0.2202
869.0,0.2157
870.0,0.2219
871.0,0.2189
872.0,0.2182
873.0,0.2178
874.0,0.2152
875.0,0.2108
876.0,0.2129
877.0,0.2151
878.0,0.2172
879.0,0.2139
880.0,0.2094
881.0,0.2055
882.0,0.2096
883.0,0.2111
884.0,0.2098
885.0,0.2113
886.0,0.1989
887.0,0.203
888.0,0.205
889.0,0.2094
890.0,0.2049
891.0,0.2059
892.0,0.1965
893.0,0.1873
894.0,0.1735
895.0,0.1553
896.0,0.1443
897.0,0.1148
898.0,0.1293
899.0,0.08862
900.0,0.1384
901.0,0.09287
902.0,0.1215
903.0,0.118
904.0,0.1717
905.0,0.1631
906.0,0.1499
907.0,0.1062
908.0,0.1119
909.0,0.1264
910.0,0.1012
911.0,0.1169
912.0,0.1218
913.0,0.1022
914.0,0.1037
915.0,0.1109
916.0,0.09285
917.0,0.128
918.0,0.09413
919.0,0.1343
920.0,0.1449
921.0,0.1495
922.0,0.1258
923.0,0.1455
924.0,0.126
925.0,0.124
926.0,0.1236
927.0,0.1459
928.0,0.08494
929.0,0.07214
930.0,0.04798
931.0,0.04496
932.0,0.025
933.0,0.01765
934.0,0.005152
935.0,0.01998
936.0,0.009129
937.0,0.009234
938.0,0.01241
939.0,0.04331
940.0,0.05829
941.0,0.03663
942.0,0.04572
943.0,0.02486
944.0,0.03163
945.0,0.03943
946.0,0.01351
947.0,0.03772
948.0,0.02717
949.0,0.05796
950.0,0.007861
951.0,0.05744
952.0,0.02274
953.0,0.03467
954.0,0.04886
955.0,0.03586
956.0,0.04311
957.0,0.02255
958.0,0.0673
959.0,0.04444
960.0,0.04996
961.0,0.0633
962.0,0.05978
963.0,0.0756
964.0,0.06746
965.0,0.07455
966.0,0.07441
967.0,0.07285
968.0,0.1266
969.0,0.127
970.0,0.1146
971.0,0.1443
972.0,0.1348
973.0,0.1044
974.0,0.09852
975.0,0.1058
976.0,0.09301
977.0,0.1221
978.0,0.1092
979.0,0.1176
980.0,0.1091
981.0,0.1437
982.0,0.1326
983.0,0.1248
984.0,0.1546
985.0,0.1316
986.0,0.1616
987.0,0.1544
988.0,0.1545
989.0,0.1639
990.0,0.1534
991.0,0.1639
992.0,0.1653
993.0,0.1574
994.0,0.1659
995.0,0.1664
996.0,0.1649
997.0,0.1655
998.0,0.1644
999.0,0.164
1000.0,0.1617
1001.0,0.1651
1002.0,0.1555
1003.0,0.1619
1004.0,0.1565
1005.0,0.1526
1006.0,0.1577
1007.0,0.1615
1008.0,0.1598
1009.0,0.158
1010.0,0.1568
1011.0,0.1608
1012.0,0.1585
1013.0,0.1607
1014.0,0.1596
1015.0,0.1584
1016.0,0.1576
1017.0,0.1577
1018.0,0.1578
1019.0,0.1525
1020.0,0.1567
1021.0,0.1568
1022.0,0.1549
1023.0,0.1564
1024.0,0.1524
1025.0,0.1569
1026.0,0.1557
1027.0,0.1555
1028.0,0.155
1029.0,0.153
1030.0,0.1547
1031.0,0.1538
1032.0,0.1536
1033.0,0.1513
1034.0,0.1513
1035.0,0.1518
1036.0,0.1524
1037.0,0.15
1038.0,0.1506
1039.0,0.1503
1040.0,0.1497
1041.0,0.1501
1042.0,0.149
1043.0,0.1485
1044.0,0.1489
1045.0,0.1467
1046.0,0.145
1047.0,0.1461
1048.0,0.1468
1049.0,0.1461
1050.0,0.1452
1051.0,0.1448
1052.0,0.144
1053.0,0.1427
1054.0,0.1427
1055.0,0.1425
1056.0,0.1416
1057.0,0.1409
1058.0,0.1372
1059.0,0.137
1060.0,0.1367
1061.0,0.1363
1062.0,0.1367
1063.0,0.1351
1064.0,0.1368
1065.0,0.1351
1066.0,0.133
1067.0,0.1345
1068.0,0.1311
1069.0,0.1275
1070.0,0.1314
1071.0,0.135
1072.0,0.1322
1073.0,0.1306
1074.0,0.1359
1075.0,0.1248
1076.0,0.1355
1077.0,0.1307
1078.0,0.1269
1079.0,0.1342
1080.0,0.1286
1081.0,0.1222
1082.0,0.128
1083.0,0.1296
1084.0,0.1211
1085.0,0.1293
1086.0,0.1122
1087.0,0.1195
1088.0,0.1288
1089.0,0.1201
1090.0,0.1156
1091.0,0.1272
1092.0,0.1275
1093.0,0.09709
1094.0,0.1153
1095.0,0.1013
1096.0,0.09415
1097.0,0.1246
1098.0,0.09082
1099.0,0.09621
1100.0,0.08562
1101.0,0.08833
1102.0,0.08131
1103.0,0.07842
1104.0,0.07891
1105.0,0.09299
1106.0,0.05555
1107.0,0.08559
1108.0,0.06323
1109.0,0.06444
1110.0,0.0823
1111.0,0.04342
1112.0,0.06446
1113.0,0.03006
1114.0,0.03376
1115.0,0.02692
1116.0,0.01665
1117.0,0.002919
1118.0,0.01894
1119.0,0.006058
1120.0,0.007078
1121.0,0.0108
1122.0,0.002466
1123.0,0.006488
1124.0,0.005433
1125.0,0.0079
1126.0,0.001003
1127.0,0.009091
1128.0,0.003188
1129.0,0.00353
1130.0,0.002156
1131.0,0.02535
1132.0,0.01808
1133.0,0.007411
1134.0,0.000753
1135.0,0.0003514
1136.0,0.005027
1137.0,0.02327
1138.0,0.01536
1139.0,0.03404
1140.0,0.02402
1141.0,0.01477
1142.0,0.01875
1143.0,0.03189
1144.0,0.006787
1145.0,0.007049
1146.0,0.007575
1147.0,0.001087
1148.0,0.02654
1149.0,0.01828
1150.0,0.008403
1151.0,0.01529
1152.0,0.02226
1153.0,0.02467
1154.0,0.007414
1155.0,0.03544
1156.0,0.02946
1157.0,0.03896
1158.0,0.03833
1159.0,0.04352
1160.0,0.0359
1161.0,0.05147
1162.0,0.0508
1163.0,0.08345
1164.0,0.06639
1165.0,0.05751
1166.0,0.06162
1167.0,0.06956
1168.0,0.0694
1169.0,0.0722
1170.0,0.08324
1171.0,0.08116
1172.0,0.08608
1173.0,0.08317
1174.0,0.04944
1175.0,0.08456
1176.0,0.09989
1177.0,0.09103
1178.0,0.0605
1179.0,0.1006
1180.0,0.08237
1181.0,0.08519
1182.0,0.04952
1183.0,0.08531
1184.0,0.07667
1185.0,0.07102
1186.0,0.09428
1187.0,0.08645
1188.0,0.04843
1189.0,0.08013
1190.0,0.09308
1191.0,0.08149
1192.0,0.09505
1193.0,0.08872
1194.0,0.09303
1195.0,0.08332
1196.0,0.07784
1197.0,0.09474
1198.0,0.08504
1199.0,0.06309
1200.0,0.08767
1201.0,0.08094
1202.0,0.08384
1203.0,0.08079
1204.0,0.06718
1205.0,0.08815
1206.0,0.1019
1207.0,0.08209
1208.0,0.08365
1209.0,0.08565
1210.0,0.09148
1211.0,0.08401
1212.0,0.0773
1213.0,0.09566
1214.0,0.08108
1215.0,0.0792
1216.0,0.09613
1217.0,0.09184
1218.0,0.09515
1219.0,0.09276
1220.0,0.09547
1221.0,0.09775
1222.0,0.09442
1223.0,0.09265
1224.0,0.0899
1225.0,0.0966
1226.0,0.09889
1227.0,0.08596
1228.0,0.1004
1229.0,0.09894
1230.0,0.09627
1231.0,0.1023
1232.0,0.1016
1233.0,0.09366
1234.0,0.1033
1235.0,0.1019
1236.0,0.1032
1237.0,0.1001
1238.0,0.1029
1239.0,0.1015
1240.0,0.1021
1241.0,0.1004
1242.0,0.1013
1243.0,0.1006
1244.0,0.1009
1245.0,0.1015
1246.0,0.101
1247.0,0.1003
1248.0,0.09955
1249.0,0.1004
1250.0,0.09943
1251.0,0.09737
1252.0,0.09838
1253.0,0.0958
1254.0,0.09353
1255.0,0.09782
1256.0,0.0918
1257.0,0.09063
1258.0,0.09492
1259.0,0.08652
1260.0,0.08758
1261.0,0.07679
1262.0,0.07154
1263.0,0.07153
1264.0,0.05972
1265.0,0.07117
1266.0,0.06467
1267.0,0.06845
1268.0,0.06078
1269.0,0.0189
1270.0,0.06715
1271.0,0.07736
1272.0,0.07814
1273.0,0.07665
1274.0,0.07782
1275.0,0.07998
1276.0,0.08195
1277.0,0.08411
1278.0,0.088
1279.0,0.0872
1280.0,0.08617
1281.0,0.08336
1282.0,0.0822
1283.0,0.08814
1284.0,0.08992
1285.0,0.09085
1286.0,0.09309
1287.0,0.08976
1288.0,0.09039
1289.0,0.08377
1290.0,0.08974
1291.0,0.09169
1292.0,0.07962
1293.0,0.08844
1294.0,0.08757
1295.0,0.08473
1296.0,0.07715
1297.0,0.07043
1298.0,0.08163
1299.0,0.08908
1300.0,0.06606
1301.0,0.06948
1302.0,0.08166
1303.0,0.06594
1304.0,0.04835
1305.0,0.07953
1306.0,0.07835
1307.0,0.05222
1308.0,0.06744
1309.0,0.07607
1310.0,0.05032
1311.0,0.06269
1312.0,0.06018
1313.0,0.05657
1314.0,0.0476
1315.0,0.04544
1316.0,0.06013
1317.0,0.05561
1318.0,0.06403
1319.0,0.04069
1320.0,0.04095
1321.0,0.05122
1322.0,0.04986
1323.0,0.03033
1324.0,0.04037
1325.0,0.05784
1326.0,0.0452
1327.0,0.0417
1328.0,0.03327
1329.0,0.01922
1330.0,0.02831
1331.0,0.01168
1332.0,0.01329
1333.0,0.0195
1334.0,0.02055
1335.0,0.02931
1336.0,0.01977
1337.0,0.01706
1338.0,0.01797
1339.0,0.01847
1340.0,0.01961
1341.0,0.01517
1342.0,0.01655
1343.0,0.00646
1344.0,0.004303
1345.0,0.005623
1346.0,0.001195
1347.0,0.001002
1348.0,1.532e-05
1349.0,7.011e-05
1350.0,8.518e-05
1351.0,7.002e-06
1352.0,1.032e-06
1353.0,4.993e-08
1354.0,1.811e-07
1355.0,1.36e-09
1356.0,2.421e-08
1357.0,3.673e-08
1358.0,1.597e-09
1359.0,2.009e-10
1360.0,7.263e-10
1361.0,8.122e-13
1362.0,2.222e-15
1363.0,9.763e-10
1364.0,4.031e-10
1365.0,7.757e-16
1366.0,4.231e-09
1367.0,1.728e-09
1368.0,5.989e-18
1369.0,1.485e-10
1370.0,7.314e-11
1371.0,4.146e-12
1372.0,9.372e-10
1373.0,1.895e-08
1374.0,8.924e-08
1375.0,1.601e-07
1376.0,1.551e-07
1377.0,6.986e-08
1378.0,6.744e-07
1379.0,2.961e-08
1380.0,3.995e-08
1381.0,1.037e-09
1382.0,8.212e-10
1383.0,1.227e-11
1384.0,1.609e-10
1385.0,7.719e-10
1386.0,7.238e-10
1387.0,8.783e-08
1388.0,1.756e-09
1389.0,3.058e-07
1390.0,2.596e-07
1391.0,1.733e-07
1392.0,1.134e-08
1393.0,6.177e-08
1394.0,2.993e-08
1395.0,2.191e-10
1396.0,1.057e-12
1397.0,2.372e-08
1398.0,7.05e-07
1399.0,4.506e-07
1400.0,4.521e-13
1401.0,1.876e-12
1402.0,2.399e-06
1403.0,2.284e-06
1404.0,6.102e-07
1405.0,1.036e-10
1406.0,1.31e-06
1407.0,1.793e-07
1408.0,1.099e-06
1409.0,3.278e-07
1410.0,3.084e-07
1411.0,2.098e-06
1412.0,3.907e-06
1413.0,9.654e-05
1414.0,2.552e-07
1415.0,1.108e-07
1416.0,0.0005171
