interpolation:linear
wavelength,value
280.0,1.6030000000000002e-20
280.5,4.723e-19
281.0,2.443e-18
281.5,4.189e-19
282.0,1.576e-18
282.5,4.32e-18
283.0,1.418e-17
283.5,2.33e-17
284.0,3.705e-16
284.5,1.053e-15
285.0,1.92e-15
285.5,1.062e-14
286.0,4.382e-14
286.5,2.008e-13
287.0,5.783e-13
287.5,2.214e-12
288.0,6.112e-12
288.5,2.299e-11
289.0,7.295e-11
289.5,2.574e-10
290.0,7.986e-10
290.5,1.777e-09
291.0,4.202e-09
291.5,1.353e-08
292.0,3.602e-08
292.5,5.714e-08
293.0,1.438e-07
293.5,4.386e-07
294.0,8.13e-07
294.5,1.084e-06
295.0,2.172e-06
295.5,5.706e-06
296.0,1.117e-05
296.5,1.584e-05
297.0,2.168e-05
297.5,5.91e-05
298.0,9.444e-05
298.5,9.605e-05
299.0,0.0002141
299.5,0.0003617
300.0,0.0004023
300.5,0.0005897
301.0,0.001089
301.5,0.001776
302.0,0.001541
302.5,0.002954
303.0,0.00517
303.5,0.0064
304.0,0.005938
304.5,0.008568
305.0,0.01239
305.5,0.01377
306.0,0.01318
306.5,0.01609
307.0,0.02288
307.5,0.02921
308.0,0.03065
308.5,0.03548
309.0,0.03448
309.5,0.03838
310.0,0.03806
310.5,0.06124
311.0,0.07605
311.5,0.07307
312.0,0.07134
312.5,0.08545
313.0,0.09191
313.5,0.08995
314.0,0.1103
314.5,0.09533
315.0,0.1247
315.5,0.1056
316.0,0.09034
316.5,0.1274
317.0,0.1582
317.5,0.1655
318.0,0.1275
318.5,0.1546
319.0,0.1812
319.5,0.1506
320.0,0.1825
320.5,0.2229
321.0,0.1941
321.5,0.1857
322.0,0.2027
322.5,0.1761
323.0,0.1727
323.5,0.2091
324.0,0.2435
324.5,0.2488
325.0,0.2167
325.5,0.2751
326.0,0.3352
326.5,0.3328
327.0,0.3328
327.5,0.3227
328.0,0.2906
328.5,0.3012
329.0,0.3568
329.5,0.4037
330.0,0.4083
330.5,0.3295
331.0,0.3367
331.5,0.3401
332.0,0.3641
332.5,0.3587
333.0,0.3585
333.5,0.3266
334.0,0.335
334.5,0.3836
335.0,0.3589
335.5,0.4192
336.0,0.29
336.5,0.3404
337.0,0.2802
337.5,0.3489
338.0,0.3385
338.5,0.3906
339.0,0.3866
339.5,0.3719
340.0,0.4371
340.5,0.3938
341.0,0.3841
341.5,0.3526
342.0,0.4214
342.5,0.3942
343.0,0.4336
343.5,0.4084
344.0,0.3018
344.5,0.3049
345.0,0.4033
345.5,0.4117
346.0,0.3499
346.5,0.3961
347.0,0.4254
347.5,0.3439
348.0,0.392
348.5,0.3918
349.0,0.3635
349.5,0.3599
350.0,0.4451
350.5,0.4696
351.0,0.4195
351.5,0.4078
352.0,0.438
352.5,0.3418
353.0,0.4304
353.5,0.4603
354.0,0.4778
354.5,0.4846
355.0,0.483
355.5,0.4364
356.0,0.4566
356.5,0.3899
357.0,0.3221
357.5,0.3944
358.0,0.3126
358.5,0.2671
359.0,0.3737
359.5,0.4763
360.0,0.5049
360.5,0.4035
361.0,0.3679
361.5,0.4236
362.0,0.3663
362.5,0.5069
363.0,0.4553
363.5,0.4194
364.0,0.513
364.5,0.4385
365.0,0.4466
365.5,0.5606
366.0,0.594
366.5,0.5581
367.0,0.5435
367.5,0.5641
368.0,0.4937
368.5,0.4982
369.0,0.538
369.5,0.5735
370.0,0.6114
370.5,0.4746
371.0,0.5071
371.5,0.6345
372.0,0.4212
372.5,0.505
373.0,0.5137
373.5,0.3343
374.0,0.4858
374.5,0.4023
375.0,0.3911
375.5,0.584
376.0,0.4841
376.5,0.5018
377.0,0.5313
377.5,0.6216
378.0,0.6739
378.5,0.637
379.0,0.5257
379.5,0.4803
380.0,0.4994
380.5,0.6049
381.0,0.6062
381.5,0.4806
382.0,0.4268
382.5,0.3639
383.0,0.3369
383.5,0.3245
384.0,0.358
384.5,0.5266
385.0,0.5222
385.5,0.4864
386.0,0.4166
386.5,0.5473
387.0,0.4548
387.5,0.5109
388.0,0.4717
388.5,0.4664
389.0,0.5035
389.5,0.6098
390.0,0.6121
390.5,0.5633
391.0,0.6631
391.5,0.6764
392.0,0.5698
392.5,0.5102
393.0,0.2839
393.5,0.2064
394.0,0.42
394.5,0.534
395.0,0.6517
395.5,0.662
396.0,0.574
396.5,0.3356
397.0,0.2519
397.5,0.5123
398.0,0.7174
398.5,0.7416
399.0,0.8031
399.5,0.8005
400.0,0.8313
401.0,0.8441
402.0,0.8906
403.0,0.8461
404.0,0.8332
405.0,0.8331
406.0,0.8197
407.0,0.8065
408.0,0.8381
409.0,0.8971
410.0,0.7839
411.0,0.8492
412.0,0.9121
413.0,0.8896
414.0,0.9005
415.0,0.9029
416.0,0.9187
417.0,0.8962
418.0,0.8797
419.0,0.8913
420.0,0.8874
421.0,0.9284
422.0,0.8825
423.0,0.8621
424.0,0.9119
425.0,0.9102
426.0,0.8866
427.0,0.8701
428.0,0.8476
429.0,0.8028
430.0,0.7026
431.0,0.6965
432.0,0.8992
433.0,0.9042
434.0,0.8396
435.0,0.877
436.0,0.988
437.0,0.9747
438.0,0.8875
439.0,0.9182
440.0,0.9474
441.0,0.9816
442.0,1.053
443.0,1.026
444.0,1.048
445.0,1.025
446.0,0.9782
447.0,1.057
448.0,1.074
449.0,1.078
450.0,1.108
451.0,1.149
452.0,1.107
453.0,1.041
454.0,1.087
455.0,1.094
456.0,1.12
457.0,1.138
458.0,1.1
459.0,1.094
460.0,1.097
461.0,1.122
462.0,1.131
463.0,1.123
464.0,1.104
465.0,1.09
466.0,1.101
467.0,1.081
468.0,1.093
469.0,1.099
470.0,1.064
471.0,1.063
472.0,1.12
473.0,1.105
474.0,1.107
475.0,1.117
476.0,1.084
477.0,1.087
478.0,1.117
479.0,1.11
480.0,1.112
481.0,1.132
482.0,1.138
483.0,1.124
484.0,1.101
485.0,1.049
486.0,0.9167
487.0,0.9606
488.0,1.054
489.0,1.057
490.0,1.112
491.0,1.093
492.0,1.032
493.0,1.066
494.0,1.076
495.0,1.086
496.0,1.092
497.0,1.109
498.0,1.057
499.0,1.071
500.0,1.04
501.0,1.021
502.0,1.007
503.0,1.048
504.0,1.023
505.0,1.058
506.0,1.093
507.0,1.04
508.0,1.007
509.0,1.035
510.0,1.029
511.0,1.057
512.0,1.068
513.0,1.011
514.0,1.004
515.0,0.9939
516.0,0.9916
517.0,0.881
518.0,0.9262
519.0,0.9715
520.0,1.007
521.0,1.016
522.0,1.017
523.0,0.9992
524.0,1.035
525.0,1.048
526.0,1.001
527.0,0.9432
528.0,0.9977
529.0,1.052
530.0,1.037
531.0,1.052
532.0,1.016
533.0,0.9863
534.0,1.015
535.0,1.037
536.0,1.047
537.0,1.005
538.0,1.023
539.0,1.015
540.0,0.9728
541.0,0.9795
542.0,1.01
543.0,0.9995
544.0,1.017
545.0,1.014
546.0,1.018
547.0,1.018
548.0,1.006
549.0,1.009
550.0,1.021
551.0,1.008
552.0,1.015
553.0,0.997
554.0,1.021
555.0,1.023
556.0,1.01
557.0,0.9784
558.0,0.9712
559.0,0.9532
560.0,0.9652
561.0,0.9778
562.0,0.9709
563.0,0.9976
564.0,0.9705
565.0,0.9623
566.0,0.9483
567.0,0.9664
568.0,0.9582
569.0,0.9363
570.0,0.9359
571.0,0.93
572.0,0.9529
573.0,0.9632
574.0,0.9603
575.0,0.9425
576.0,0.9339
577.0,0.944
578.0,0.9296
579.0,0.9329
580.0,0.95
581.0,0.9545
582.0,0.9722
583.0,0.9742
584.0,0.9825
585.0,0.9584
586.0,0.9387
587.0,0.9595
588.0,0.9372
589.0,0.8323
590.0,0.8703
591.0,0.9197
592.0,0.9088
593.0,0.9213
594.0,0.9153
595.0,0.8934
596.0,0.927
597.0,0.9174
598.0,0.9145
599.0,0.9151
600.0,0.9161
601.0,0.9083
602.0,0.902
603.0,0.9168
604.0,0.9319
605.0,0.927
606.0,0.923
607.0,0.932
608.0,0.9215
609.0,0.923
610.0,0.9162
611.0,0.9209
612.0,0.9181
613.0,0.9065
614.0,0.894
615.0,0.9133
616.0,0.8831
617.0,0.8812
618.0,0.9151
619.0,0.9057
620.0,0.9115
621.0,0.9125
622.0,0.9019
623.0,0.8883
624.0,0.873
625.0,0.871
626.0,0.8839
627.0,0.8942
628.0,0.8393
629.0,0.8745
630.0,0.8545
631.0,0.8723
632.0,0.8616
633.0,0.8872
634.0,0.8781
635.0,0.8916
636.0,0.8795
637.0,0.8937
638.0,0.902
639.0,0.8917
640.0,0.8829
641.0,0.8822
642.0,0.878
643.0,0.8898
644.0,0.8868
645.0,0.8883
646.0,0.8681
647.0,0.8589
648.0,0.8598
649.0,0.8433
650.0,0.8459
651.0,0.8822
652.0,0.8471
653.0,0.8705
654.0,0.8607
655.0,0.8294
656.0,0.7345
657.0,0.7542
658.0,0.8448
659.0,0.8507
660.0,0.8541
661.0,0.8601
662.0,0.8621
663.0,0.8449
664.0,0.8545
665.0,0.8549
666.0,0.8554
667.0,0.8545
668.0,0.8547
669.0,0.8678
670.0,0.864
671.0,0.8637
672.0,0.8563
673.0,0.8691
674.0,0.8658
675.0,0.8579
676.0,0.8637
677.0,0.8551
678.0,0.8574
679.0,0.8435
680.0,0.8503
681.0,0.8446
682.0,0.8435
683.0,0.8419
684.0,0.8377
685.0,0.8448
686.0,0.8399
687.0,0.5758
688.0,0.6662
689.0,0.6683
690.0,0.698
691.0,0.7314
692.0,0.7554
693.0,0.7495
694.0,0.7432
695.0,0.7718
696.0,0.7728
697.0,0.8174
698.0,0.8047
699.0,0.7873
700.0,0.7778
701.0,0.7705
702.0,0.7751
703.0,0.7766
704.0,0.8003
705.0,0.8015
706.0,0.8004
707.0,0.8008
708.0,0.8026
709.0,0.8031
710.0,0.8034
711.0,0.802
712.0,0.7993
713.0,0.7916
714.0,0.7945
715.0,0.7701
716.0,0.7707
717.0,0.6751
718.0,0.6211
719.0,0.5696
720.0,0.5972
721.0,0.6552
722.0,0.7451
723.0,0.696
724.0,0.6297
725.0,0.6205
726.0,0.6491
727.0,0.6568
728.0,0.6193
729.0,0.64
730.0,0.6773
731.0,0.6487
732.0,0.6914
733.0,0.7295
734.0,0.7461
735.0,0.731
736.0,0.7301
737.0,0.733
738.0,0.7427
739.0,0.7281
740.0,0.7466
741.0,0.7389
742.0,0.7393
743.0,0.758
744.0,0.7557
745.0,0.7557
746.0,0.7591
747.0,0.7607
748.0,0.7591
749.0,0.7505
750.0,0.75
751.0,0.7424
752.0,0.7456
753.0,0.7493
754.0,0.751
755.0,0.7468
756.0,0.7464
757.0,0.7475
758.0,0.7382
759.0,0.7242
760.0,0.1371
761.0,0.07521
762.0,0.3879
763.0,0.2035
764.0,0.2974
765.0,0.388
766.0,0.4683
767.0,0.5829
768.0,0.6663
769.0,0.6789
770.0,0.7004
771.0,0.7053
772.0,0.7066
773.0,0.7114
774.0,0.708
775.0,0.7025
776.0,0.7111
777.0,0.7017
778.0,0.6974
779.0,0.698
780.0,0.6941
781.0,0.6948
782.0,0.6991
783.0,0.6869
784.0,0.6902
785.0,0.6852
786.0,0.6928
787.0,0.6813
788.0,0.6732
789.0,0.673
790.0,0.6561
791.0,0.6608
792.0,0.6558
793.0,0.6453
794.0,0.6553
795.0,0.6667
796.0,0.6475
797.0,0.6484
798.0,0.666
799.0,0.662
800.0,0.6508
801.0,0.6491
802.0,0.6472
803.0,0.6424
804.0,0.6432
805.0,0.6408
806.0,0.6581
807.0,0.6503
808.0,0.6509
809.0,0.6391
810.0,0.6342
811.0,0.6357
812.0,0.6184
813.0,0.6061
814.0,0.5363
815.0,0.5329
816.0,0.4964
817.0,0.5051
818.0,0.4869
819.0,0.5417
820.0,0.5112
821.0,0.5939
822.0,0.5775
823.0,0.3985
824.0,0.562
825.0,0.5837
826.0,0.5627
827.0,0.5927
828.0,0.5057
829.0,0.5591
830.0,0.5521
831.0,0.5539
832.0,0.5375
833.0,0.5702
834.0,0.5511
835.0,0.6031
836.0,0.5787
837.0,0.6047
838.0,0.5866
839.0,0.5955
840.0,0.6084
841.0,0.6
842.0,0.6009
843.0,0.6001
844.0,0.592
845.0,0.6117
846.0,0.609
847.0,0.5975
848.0,0.594
849.0,0.5771
850.0,0.5529
851.0,0.5855
852.0,0.5813
853.0,0.5594
854.0,0.4831
855.0,0.5307
856.0,0.58
857.0,0.5928
858.0,0.5885
859.0,0.5889
860.0,0.5899
861.0,0.5867
862.0,0.5959
863.0,0.61
864.0,0.5795
865.0,0.5744
866.0,0.5165
867.0,0.539
868.0,0.5865
869.0,0.5743
870.0,0.5907
871.0,0.5826
872.0,0.5806
873.0,0.5794
874.0,0.5725
875.0,0.5609
876.0,0.5668
877.0,0.5725
878.0,0.5787
879.0,0.5698
880.0,0.5576
881.0,0.5493
882.0,0.5612
883.0,0.5629
884.0,0.5604
885.0,0.5646
886.0,0.5383
887.0,0.5439
888.0,0.552
889.0,0.5581
890.0,0.5536
891.0,0.5526
892.0,0.5369
893.0,0.5205
894.0,0.5029
895.0,0.4762
896.0,0.4489
897.0,0.3869
898.0,0.4215
899.0,0.322
900.0,0.4308
901.0,0.3375
902.0,0.3941
903.0,0.3987
904.0,0.4991
905.0,0.4824
906.0,0.4517
907.0,0.3688
908.0,0.3759
909.0,0.4063
910.0,0.3608
911.0,0.3837
912.0,0.4008
913.0,0.3663
914.0,0.3629
915.0,0.3933
916.0,0.3333
917.0,0.4214
918.0,0.3418
919.0,0.4287
920.0,0.4323
921.0,0.4495
922.0,0.4028
923.0,0.4341
924.0,0.413
925.0,0.404
926.0,0.4084
927.0,0.4563
928.0,0.3373
929.0,0.3086
930.0,0.2434
931.0,0.2305
932.0,0.1669
933.0,0.1361
934.0,0.0755
935.0,0.1389
936.0,0.08727
937.0,0.08851
938.0,0.1086
939.0,0.2233
940.0,0.2681
941.0,0.2031
942.0,0.2347
943.0,0.1549
944.0,0.1626
945.0,0.2093
946.0,0.1072
947.0,0.2104
948.0,0.1547
949.0,0.281
950.0,0.0791
951.0,0.2765
952.0,0.1494
953.0,0.1924
954.0,0.2353
955.0,0.1946
956.0,0.1885
957.0,0.1498
958.0,0.2663
959.0,0.2122
960.0,0.2379
961.0,0.2665
962.0,0.2522
963.0,0.2903
964.0,0.266
965.0,0.2891
966.0,0.2893
967.0,0.2881
968.0,0.3847
969.0,0.402
970.0,0.3693
971.0,0.4221
972.0,0.4039
973.0,0.3523
974.0,0.3345
975.0,0.347
976.0,0.3298
977.0,0.3746
978.0,0.3562
979.0,0.3729
980.0,0.3507
981.0,0.4196
982.0,0.4015
983.0,0.3856
984.0,0.4321
985.0,0.3999
986.0,0.4395
987.0,0.4311
988.0,0.4303
989.0,0.4381
990.0,0.4277
991.0,0.4394
992.0,0.4419
993.0,0.4323
994.0,0.4418
995.0,0.4412
996.0,0.4393
997.0,0.4399
998.0,0.4378
999.0,0.4362
1000.0,0.4332
1001.0,0.4386
1002.0,0.4266
1003.0,0.4308
1004.0,0.4203
1005.0,0.4049
1006.0,0.4207
1007.0,0.4296
1008.0,0.4273
1009.0,0.425
1010.0,0.4233
1011.0,0.4274
1012.0,0.4237
1013.0,0.4264
1014.0,0.4234
1015.0,0.4206
1016.0,0.4187
1017.0,0.4198
1018.0,0.4182
1019.0,0.4093
1020.0,0.416
1021.0,0.4154
1022.0,0.4122
1023.0,0.4166
1024.0,0.4112
1025.0,0.4163
1026.0,0.4145
1027.0,0.4135
1028.0,0.4127
1029.0,0.4078
1030.0,0.4106
1031.0,0.4089
1032.0,0.4077
1033.0,0.4016
1034.0,0.4016
1035.0,0.4029
1036.0,0.405
1037.0,0.3984
1038.0,0.4001
1039.0,0.3999
1040.0,0.3983
1041.0,0.3999
1042.0,0.3971
1043.0,0.3958
1044.0,0.3972
1045.0,0.3919
1046.0,0.3875
1047.0,0.391
1048.0,0.3932
1049.0,0.3917
1050.0,0.39
1051.0,0.3894
1052.0,0.3878
1053.0,0.3848
1054.0,0.3856
1055.0,0.3858
1056.0,0.3845
1057.0,0.3833
1058.0,0.3739
1059.0,0.3743
1060.0,0.3737
1061.0,0.3733
1062.0,0.3752
1063.0,0.3715
1064.0,0.3759
1065.0,0.3732
1066.0,0.3659
1067.0,0.3706
1068.0,0.3625
1069.0,0.3513
1070.0,0.3632
1071.0,0.3688
1072.0,0.3646
1073.0,0.3594
1074.0,0.3686
1075.0,0.3503
1076.0,0.3683
1077.0,0.3618
1078.0,0.355
1079.0,0.3624
1080.0,0.3562
1081.0,0.3449
1082.0,0.3503
1083.0,0.3513
1084.0,0.344
1085.0,0.357
1086.0,0.326
1087.0,0.3363
1088.0,0.351
1089.0,0.3404
1090.0,0.333
1091.0,0.3499
1092.0,0.349
1093.0,0.2963
1094.0,0.3193
1095.0,0.3086
1096.0,0.2957
1097.0,0.3409
1098.0,0.2911
1099.0,0.3036
1100.0,0.2824
1101.0,0.2859
1102.0,0.2731
1103.0,0.2706
1104.0,0.2709
1105.0,0.2967
1106.0,0.2277
1107.0,0.2819
1108.0,0.2394
1109.0,0.2397
1110.0,0.2795
1111.0,0.1901
1112.0,0.2379
1113.0,0.152
1114.0,0.1698
1115.0,0.1408
1116.0,0.1127
1117.0,0.04169
1118.0,0.1225
1119.0,0.06102
1120.0,0.07683
1121.0,0.1018
1122.0,0.04303
1123.0,0.06942
1124.0,0.05859
1125.0,0.07639
1126.0,0.02676
1127.0,0.08616
1128.0,0.05172
1129.0,0.05486
1130.0,0.03616
1131.0,0.163
1132.0,0.1279
1133.0,0.08129
1134.0,0.02089
1135.0,0.007823
1136.0,0.06789
1137.0,0.1602
1138.0,0.1129
1139.0,0.1679
1140.0,0.1404
1141.0,0.1073
1142.0,0.1233
1143.0,0.1749
1144.0,0.06131
1145.0,0.0784
1146.0,0.08456
1147.0,0.02991
1148.0,0.1514
1149.0,0.121
1150.0,0.06592
1151.0,0.112
1152.0,0.1377
1153.0,0.134
1154.0,0.07601
1155.0,0.1751
1156.0,0.1578
1157.0,0.1769
1158.0,0.1749
1159.0,0.1885
1160.0,0.1613
1161.0,0.1983
1162.0,0.1993
1163.0,0.268
1164.0,0.2303
1165.0,0.2177
1166.0,0.2159
1167.0,0.2349
1168.0,0.2376
1169.0,0.2431
1170.0,0.2638
1171.0,0.2573
1172.0,0.2616
1173.0,0.2632
1174.0,0.1892
1175.0,0.2569
1176.0,0.2817
1177.0,0.2709
1178.0,0.2045
1179.0,0.284
1180.0,0.2543
1181.0,0.2623
1182.0,0.1822
1183.0,0.2581
1184.0,0.2423
1185.0,0.2342
1186.0,0.2764
1187.0,0.2637
1188.0,0.1854
1189.0,0.2457
1190.0,0.2701
1191.0,0.2572
1192.0,0.2738
1193.0,0.2626
1194.0,0.2705
1195.0,0.2564
1196.0,0.2472
1197.0,0.2704
1198.0,0.2477
1199.0,0.2119
1200.0,0.2594
1201.0,0.2506
1202.0,0.2489
1203.0,0.2468
1204.0,0.2165
1205.0,0.2543
1206.0,0.2802
1207.0,0.2483
1208.0,0.2441
1209.0,0.249
1210.0,0.2591
1211.0,0.2472
1212.0,0.2448
1213.0,0.2713
1214.0,0.2504
1215.0,0.2458
1216.0,0.2704
1217.0,0.2635
1218.0,0.2682
1219.0,0.265
1220.0,0.2684
1221.0,0.271
1222.0,0.2641
1223.0,0.2617
1224.0,0.2603
1225.0,0.2692
1226.0,0.2709
1227.0,0.2506
1228.0,0.2721
1229.0,0.2709
1230.0,0.2664
1231.0,0.2735
1232.0,0.2719
1233.0,0.2632
1234.0,0.2732
1235.0,0.2715
1236.0,0.2735
1237.0,0.2699
1238.0,0.2725
1239.0,0.269
1240.0,0.27
1241.0,0.2689
1242.0,0.2682
1243.0,0.266
1244.0,0.2679
1245.0,0.2691
1246.0,0.2675
1247.0,0.2665
1248.0,0.2664
1249.0,0.2671
1250.0,0.2656
1251.0,0.2622
1252.0,0.2622
1253.0,0.2603
1254.0,0.2578
1255.0,0.262
1256.0,0.255
1257.0,0.2536
1258.0,0.2581
1259.0,0.2493
1260.0,0.2505
1261.0,0.2372
1262.0,0.2304
1263.0,0.2309
1264.0,0.214
1265.0,0.2294
1266.0,0.2212
1267.0,0.2248
1268.0,0.2137
1269.0,0.1362
1270.0,0.2241
1271.0,0.2363
1272.0,0.237
1273.0,0.2345
1274.0,0.2352
1275.0,0.2385
1276.0,0.2406
1277.0,0.2421
1278.0,0.2465
1279.0,0.2443
1280.0,0.2411
1281.0,0.23
1282.0,0.2214
1283.0,0.2385
1284.0,0.2442
1285.0,0.2458
1286.0,0.249
1287.0,0.2454
1288.0,0.2452
1289.0,0.2379
1290.0,0.243
1291.0,0.2464
1292.0,0.2323
1293.0,0.2418
1294.0,0.2401
1295.0,0.2392
1296.0,0.2289
1297.0,0.2169
1298.0,0.2326
1299.0,0.242
1300.0,0.2062
1301.0,0.2123
1302.0,0.2319
1303.0,0.2034
1304.0,0.1747
1305.0,0.2272
1306.0,0.2273
1307.0,0.178
1308.0,0.2035
1309.0,0.2257
1310.0,0.1747
1311.0,0.1954
1312.0,0.1903
1313.0,0.1868
1314.0,0.1676
1315.0,0.1657
1316.0,0.1925
1317.0,0.1825
1318.0,0.1978
1319.0,0.156
1320.0,0.1509
1321.0,0.1752
1322.0,0.1772
1323.0,0.1344
1324.0,0.153
1325.0,0.1898
1326.0,0.1636
1327.0,0.1562
1328.0,0.135
1329.0,0.1022
1330.0,0.1327
1331.0,0.08099
1332.0,0.08333
1333.0,0.1158
1334.0,0.09763
1335.0,0.1339
1336.0,0.1064
1337.0,0.09428
1338.0,0.102
1339.0,0.1014
1340.0,0.09844
1341.0,0.09665
1342.0,0.1015
1343.0,0.06972
1344.0,0.0417
1345.0,0.06008
1346.0,0.03046
1347.0,0.03108
1348.0,0.002131
1349.0,0.007538
1350.0,0.007743
1351.0,0.001979
1352.0,0.0005655
1353.0,3.071e-05
1354.0,0.0001017
1355.0,9.333e-07
1356.0,1.508e-05
1357.0,2.293e-05
1358.0,1.1e-06
1359.0,1.529e-07
1360.0,5.211e-07
1361.0,7.171e-10
1362.0,2.148e-12
1363.0,7.271e-07
1364.0,3.029e-07
1365.0,8.453e-13
1366.0,3.098e-06
1367.0,1.248e-06
1368.0,8.193e-15
1369.0,1.139e-07
1370.0,5.856e-08
1371.0,3.501e-09
1372.0,6.867e-07
1373.0,1.299e-05
1374.0,5.779e-05
1375.0,0.0001053
1376.0,9.129e-05
1377.0,4.224e-05
1378.0,0.0004058
1379.0,1.778e-05
1380.0,2.634e-05
1381.0,7.073e-07
1382.0,6.267e-07
1383.0,9.756e-09
1384.0,1.31e-07
1385.0,5.662e-07
1386.0,5.748e-07
1387.0,6.163e-05
1388.0,1.219e-06
1389.0,0.0001993
1390.0,0.0001716
1391.0,0.0001156
1392.0,7.633e-06
1393.0,3.957e-05
1394.0,2.197e-05
1395.0,1.702e-07
1396.0,1.005e-09
1397.0,1.605e-05
1398.0,0.0004581
1399.0,0.0002904
1400.0,4.587e-10
1401.0,1.774e-09
1402.0,0.0007632
1403.0,0.0009696
1404.0,0.0002969
1405.0,8.586e-08
1406.0,0.0007868
1407.0,6.864e-05
1408.0,0.0006417
1409.0,0.0002221
1410.0,0.0001744
1411.0,0.000851
1412.0,0.001133
1413.0,0.01125
1414.0,0.0001371
1415.0,6.676e-05
1416.0,0.01821
1417.0,0.005565
1418.0,0.006348
1419.0,0.0009876
1420.0,0.003886
1421.0,0.004203
1422.0,0.02376
1423.0,0.004615
1424.0,0.008641
1425.0,0.01273
1426.0,0.01442
1427.0,0.02649
1428.0,0.00201
1429.0,0.01981
1430.0,0.03377
1431.0,0.0371
1432.0,0.001584
1433.0,0.02358
1434.0,0.01198
1435.0,0.01194
1436.0,0.02311
1437.0,0.01771
1438.0,0.007458
1439.0,0.03147
1440.0,0.02357
1441.0,0.01791
1442.0,0.01987
1443.0,0.02505
1444.0,0.03477
1445.0,0.0271
